Wavelength (nm),Absorbance (AU) 2024-09-12 23:57:03
901.841506,0.1799671530697289
904.394392,0.18076493530328738
905.670145,0.18717954322148866
908.220269,0.17586958308568648
910.768552,0.2264855058989489
913.314994,0.213567698967644
915.859594,0.22670749531606396
918.402353,0.22137876264120818
920.943271,0.24210555162527517
923.482347,0.2549937743207397
926.019582,0.24955230650521779
928.554976,0.27133423588934996
931.088528,0.28608972275691147
933.620239,0.2975775540294202
936.150109,0.3200704441652124
938.678137,0.34303085573839387
941.204324,0.345226931247411
943.72867,0.3907679160539269
946.251174,0.41040154497668246
948.771837,0.42806121763135224
951.290658,0.4347068467843222
953.807639,0.4480072077083918
956.322778,0.44889212092986225
958.836075,0.4637557634346224
961.347531,0.45977473480032305
963.857146,0.4671248898049481
966.36492,0.449668881003692
968.870852,0.46379115528805254
971.374943,0.47965067448661863
973.877192,0.46133591949250674
976.3776,0.4435672683414413
978.876167,0.44291534361071955
981.372892,0.440941770703947
983.867776,0.4260340104957906
986.360819,0.44071810735714956
987.60665,0.4408116690066535
990.096931,0.4114529672165089
992.58537,0.4117215683674116
995.071968,0.4026716144592933
997.556725,0.3838257114418316
1000.03964,0.37146084118362716
1002.520714,0.35371392174613286
1004.999947,0.3520031806304757
1007.477338,0.33621613153391644
1009.952888,0.3337149554001676
1012.426597,0.32081043959192757
1014.898464,0.31016587244012356
1017.36849,0.28972401059986913
1019.836674,0.29730250489617865
1022.303017,0.2747023157283403
1024.767519,0.2812996460398382
1027.23018,0.2697717703437756
1029.690999,0.26611384296053014
1032.149977,0.2628738397667483
1034.607113,0.24570772912058667
1037.062409,0.24019179565057738
1039.515862,0.24941611904838848
1041.967475,0.21557009514196895
1044.417246,0.22251731737540192
1046.865176,0.2256451796374793
1049.311264,0.23363969446227034
1051.755511,0.19920490934056115
1054.197917,0.22457527611869033
1056.638481,0.22352947570762016
1059.077204,0.22750361467656888
1061.514086,0.23388320760602735
1063.949127,0.2185516322733642
1066.382326,0.21620457032971763
1067.598235,0.23672902142464922
1070.028672,0.22410877633149134
1072.457267,0.20237856621233072
1074.884022,0.24444100602147137
1077.308934,0.24795982885756163
1079.732006,0.23725690938687252
1082.153236,0.25426071146669843
1084.572625,0.25069730864348977
1086.990173,0.24449229382826798
1089.405879,0.26726794420799316
1091.819744,0.26759701140138037
1094.231768,0.27584617209445517
1096.64195,0.2718228522308654
1099.050291,0.29357456523925923
1101.45679,0.29539442320146925
1103.861448,0.2995225599051789
1106.264265,0.3110337059253119
1108.665241,0.32771581827224205
1111.064375,0.3347589488732568
1113.461668,0.3524151648001527
1115.857119,0.3756814855045982
1118.250729,0.38876516019869956
1120.642498,0.42655059723784944
1123.032425,0.48002928345528467
1125.420511,0.5114373294865533
1127.806756,0.5534023546502187
1130.191159,0.589204920924498
1132.573721,0.6299127842751061
1134.954442,0.65293330851796
1137.333321,0.6981890130305027
1139.710359,0.7286895275733777
1142.085556,0.725889338008034
1144.458911,0.7442269206633787
1145.644899,0.7468935845241277
1148.015492,0.7629218572949971
1150.384244,0.7683158404573955
1152.751154,0.7658931621395926
1155.116224,0.7572085479707825
1157.479452,0.7562154519614392
1159.840838,0.7643793931333025
1162.200383,0.7676632074841739
1164.558087,0.7688726249020391
1166.91395,0.7581039925192126
1169.267971,0.774706858059899
1171.620151,0.7638244414037564
1173.970489,0.7960579114313275
1176.318986,0.7738450441313524
1178.665642,0.7781000475611755
1181.010457,0.7845315615237226
1183.35343,0.7924725785082997
1185.694562,0.799346978582842
1188.033852,0.7750851147019956
1190.371301,0.7721797546683857
1192.706909,0.8076653205703983
1195.040675,0.7830544485504536
1197.3726,0.7599250900591016
1199.702684,0.7751245578502293
1202.030926,0.7645175097832788
1204.357327,0.7867773474315516
1206.681887,0.7497440084447214
1209.004605,0.7496028140863864
1211.325482,0.7755216653656254
1213.644518,0.7604094817156734
1215.961712,0.7517876891498162
1218.277065,0.7678211388942006
1220.590577,0.7703820248944556
1221.746642,0.7548266875368287
1224.057392,0.7603801689314778
1226.3663,0.7445061737943787
1228.673367,0.7568651430873902
1230.978592,0.7675475953226256
1233.281976,0.7550938422060459
1235.583519,0.7530140916756114
1237.883221,0.7505350548231227
1240.181081,0.7543902009748225
1242.4771,0.7337819292082899
1244.771277,0.730883392093695
1247.063613,0.750970029139151
1249.354108,0.7465440371195333
1251.642762,0.7367872860859476
1253.929574,0.7353387496366828
1256.214544,0.7495315657519869
1258.497674,0.727098500750288
1260.778962,0.7319141833254365
1263.058409,0.7423600581717262
1265.336014,0.7543593807316439
1267.611778,0.7173233011242142
1269.885701,0.7667065471359474
1272.157782,0.7385837443297024
1274.428022,0.7621047042973632
1276.696421,0.7466749533653204
1278.962978,0.7656072733384804
1281.227694,0.7765154038921169
1283.490568,0.762285492099793
1285.751602,0.7863399313117432
1288.010794,0.8111017850817654
1290.268144,0.8150225381129821
1292.523653,0.8208937084505211
1293.650717,0.8306657573513271
1295.903465,0.838652467993277
1298.154371,0.8501953698445195
1300.403435,0.8404103664745454
1302.650658,0.848361566155978
1304.89604,0.8638984065470127
1307.139581,0.8783097287333292
1309.38128,0.8779186811191307
1311.621137,0.8760574150191008
1313.859154,0.8793755078714476
1316.095329,0.9084907552093671
1318.329663,0.8971641105796153
1320.562155,0.8963889695710642
1322.792806,0.9119787629571956
1325.021616,0.8953850652551971
1327.248584,0.9193738106597239
1329.473711,0.9231997694416065
1331.696997,0.9236105241937201
1333.918441,0.9281792019614464
1336.138044,0.9226518790587734
1338.355806,0.9256382829359419
1340.571726,0.9371717015327292
1342.785805,0.9108251168848335
1344.998043,0.9647329186533141
1347.208439,0.9192147892006731
1349.416994,0.9270242080175717
1351.623708,0.9156394636245185
1353.82858,0.9290859458921185
1356.031611,0.9268079350118584
1358.2328,0.9204091604905454
1360.432149,0.9210464138650195
1362.629656,0.927922160284846
1364.825321,0.9097681482926623
1365.922463,0.8936994272580951
1368.115367,0.8955226567638245
1370.306429,0.8879366601439987
1372.49565,0.8916250003007234
1374.683029,0.9110235529497053
1376.868567,0.8878377814779027
1379.052264,0.8883734895655456
1381.234119,0.8969387709905849
1383.414134,0.9190958546506334
1385.592306,0.9314340704208445
1387.768638,0.8986849298350567
1389.943128,0.9064243563709249
1392.115776,0.9000186304373365
1394.286584,0.8911891775211722
1396.45555,0.9125203733995764
1398.622674,0.9020660209454038
1400.787958,0.897956804738994
1402.9514,0.9008694785976548
1405.113,0.9040929059277902
1407.27276,0.8893080429604344
1409.430678,0.917189287105966
1411.586754,0.895446404682434
1413.74099,0.935218913097724
1415.893383,0.9224123948244102
1418.043936,0.9133115021090789
1420.192647,0.9215592061520419
1422.339517,0.9074406800237252
1424.484546,0.9107036429967217
1426.627733,0.9297442844050077
1428.769079,0.9152932873691689
1430.908583,0.9124840525184381
1433.046246,0.9046299558824326
1435.182068,0.9168572929023878
1436.249288,0.9168185663266454
1438.382348,0.9316242604632039
1440.513567,0.8978773228907581
1442.642944,0.9006676989402003
1444.77048,0.9347627500253252
1446.896174,0.926697518126467
1449.020027,0.9065976225980524
1451.142039,0.9070178337163898
1453.262209,0.9247186010106001
1455.380538,0.9101169268560604
1457.497026,0.9210716052201042
1459.611672,0.9184935068352262
1461.724477,0.9112362298843903
1463.835441,0.924456416298851
1465.944563,0.9309906708726451
1468.051844,0.924911245637538
1470.157284,0.918497292676297
1472.260882,0.9379712575079895
1474.362639,0.9332138689755862
1476.462554,0.937980976834479
1478.560629,0.9395166346517225
1480.656861,0.9303240796448269
1482.751253,0.956741802555962
1484.843803,0.9514058810313816
1486.934512,0.9454725732174062
1489.02338,0.9532248921949866
1491.110406,0.9362568647949153
1493.195591,0.927524083606436
1495.278934,0.9591762097644176
1497.360436,0.9510019187880324
1499.440097,0.962092859929595
1501.517916,0.9507743335115969
