Wavelength (nm),Absorbance (AU) 2024-09-12 23:57:14
901.841506,0.19127523241320257
904.394392,0.18710667451095
905.670145,0.20232944911833006
908.220269,0.20558487936343492
910.768552,0.1824770266749225
913.314994,0.21099808079110308
915.859594,0.2056525939731408
918.402353,0.19843843225082944
920.943271,0.225651079424387
923.482347,0.24496239039153125
926.019582,0.26722659570019763
928.554976,0.2639207781634087
931.088528,0.2979768648499906
933.620239,0.3117405480089311
936.150109,0.32405969911240473
938.678137,0.35051117387430986
941.204324,0.39207271893717716
943.72867,0.40147135709729964
946.251174,0.4148094421165631
948.771837,0.4306789791178934
951.290658,0.4380672070459225
953.807639,0.474851969675651
956.322778,0.45854035592589726
958.836075,0.44980249674775874
961.347531,0.48359368201257863
963.857146,0.474581047432662
966.36492,0.4530622435410185
968.870852,0.4723566419629788
971.374943,0.4578871282933928
973.877192,0.45719588894630947
976.3776,0.4678418583274375
978.876167,0.4607865993541326
981.372892,0.4431543498000828
983.867776,0.45831464669273536
986.360819,0.44053202693352256
987.60665,0.42476265869902075
990.096931,0.4237753154135313
992.58537,0.4134880857444029
995.071968,0.37292415458344613
997.556725,0.38882526158996694
1000.03964,0.3852927905876931
1002.520714,0.36471336234983665
1004.999947,0.3381064912040433
1007.477338,0.3373847978129437
1009.952888,0.35695005859144513
1012.426597,0.3357394168832081
1014.898464,0.32389765664548253
1017.36849,0.29610471517789916
1019.836674,0.30732845325054187
1022.303017,0.2782941283386236
1024.767519,0.2840999750531966
1027.23018,0.29071074668765345
1029.690999,0.2593113537354793
1032.149977,0.26695537573287065
1034.607113,0.24051053808696043
1037.062409,0.2636322487825218
1039.515862,0.23820962259472486
1041.967475,0.23363663502539422
1044.417246,0.24181827152519328
1046.865176,0.23342404028179972
1049.311264,0.21944509128301146
1051.755511,0.2132993157028008
1054.197917,0.23377932870951262
1056.638481,0.22916022507004666
1059.077204,0.2260769425488202
1061.514086,0.23032493148733205
1063.949127,0.2274688917183957
1066.382326,0.2310453780536994
1067.598235,0.2405107277569821
1070.028672,0.22280442435572734
1072.457267,0.228484925802827
1074.884022,0.24864821606742213
1077.308934,0.24020227565664581
1079.732006,0.2379892597461573
1082.153236,0.25599931723037406
1084.572625,0.2561112988227477
1086.990173,0.2530472228888935
1089.405879,0.25612030475190556
1091.819744,0.2671453388020986
1094.231768,0.28723804132585834
1096.64195,0.2864229534167571
1099.050291,0.2869020630722023
1101.45679,0.2900237127455335
1103.861448,0.3004688317922622
1106.264265,0.32513930713482664
1108.665241,0.32738082142035885
1111.064375,0.3229416873930943
1113.461668,0.34475943520019375
1115.857119,0.3925843383969123
1118.250729,0.40256984882206726
1120.642498,0.42337160177190925
1123.032425,0.45844396120591796
1125.420511,0.5000126057263338
1127.806756,0.5566749907607186
1130.191159,0.5892709840719568
1132.573721,0.6253898611568637
1134.954442,0.6541537076407132
1137.333321,0.7117299963764895
1139.710359,0.720629722108633
1142.085556,0.7246584998526433
1144.458911,0.7395320248507287
1145.644899,0.7436447279623859
1148.015492,0.7509029570010879
1150.384244,0.7733250115470136
1152.751154,0.7546325690494327
1155.116224,0.7778602637056503
1157.479452,0.7561258192460858
1159.840838,0.7590032486278984
1162.200383,0.7686853295369726
1164.558087,0.7785275210580426
1166.91395,0.7830316595962689
1169.267971,0.7523198425662598
1171.620151,0.7821778720872107
1173.970489,0.7779706893703873
1176.318986,0.7791699218294296
1178.665642,0.7853096809991899
1181.010457,0.7813005936520427
1183.35343,0.7690215342434586
1185.694562,0.7844807167373109
1188.033852,0.7861251987587863
1190.371301,0.7805747860253716
1192.706909,0.7879907300731321
1195.040675,0.8197448271704255
1197.3726,0.7914958782629886
1199.702684,0.7691000243242211
1202.030926,0.7741459782814478
1204.357327,0.7654599801884593
1206.681887,0.7628618230092659
1209.004605,0.7430540958123935
1211.325482,0.7772630970670718
1213.644518,0.7695452033536783
1215.961712,0.7488966779808361
1218.277065,0.7558745520673054
1220.590577,0.7646749963050815
1221.746642,0.7556175117100166
1224.057392,0.7657890368570628
1226.3663,0.7631214509450427
1228.673367,0.7445130681874395
1230.978592,0.7470810757370353
1233.281976,0.7547881686241039
1235.583519,0.7544217236577313
1237.883221,0.7493869158553378
1240.181081,0.7374514879560501
1242.4771,0.740574075743117
1244.771277,0.7367655025476458
1247.063613,0.7344725323416871
1249.354108,0.7139007690023502
1251.642762,0.738297398132796
1253.929574,0.7291619821560263
1256.214544,0.7365693866578141
1258.497674,0.7600076468311072
1260.778962,0.749021220252833
1263.058409,0.7252791861084327
1265.336014,0.7509159881990485
1267.611778,0.7422753125595228
1269.885701,0.7659675253929369
1272.157782,0.7697154998290346
1274.428022,0.7651646955837952
1276.696421,0.7562453009668488
1278.962978,0.7613815345134195
1281.227694,0.7938204300270228
1283.490568,0.766114455024763
1285.751602,0.7836405409070021
1288.010794,0.8124497632938463
1290.268144,0.8255270109419971
1292.523653,0.8038599968339547
1293.650717,0.8078333046327101
1295.903465,0.8215286143897289
1298.154371,0.8068927277381831
1300.403435,0.8515706428453954
1302.650658,0.8436543063490567
1304.89604,0.8661451314270736
1307.139581,0.8647096204909606
1309.38128,0.8894134377402345
1311.621137,0.9041763241527435
1313.859154,0.9127929670574868
1316.095329,0.9050431502553185
1318.329663,0.9228333343116543
1320.562155,0.9086519647514242
1322.792806,0.9007516384420594
1325.021616,0.9111318307289928
1327.248584,0.9285354104054229
1329.473711,0.932130917431138
1331.696997,0.9254802615019282
1333.918441,0.9354292737129845
1336.138044,0.9167709308759252
1338.355806,0.9220780289989802
1340.571726,0.9296307506603304
1342.785805,0.9192297096218558
1344.998043,0.9255613892949354
1347.208439,0.9110746852979533
1349.416994,0.9526840277986101
1351.623708,0.9363543491388456
1353.82858,0.9183562457685353
1356.031611,0.9093906666240642
1358.2328,0.9218615317949935
1360.432149,0.9142413790711083
1362.629656,0.912024004658335
1364.825321,0.9249086772875438
1365.922463,0.9383211845232006
1368.115367,0.8853816876976351
1370.306429,0.8736710967602442
1372.49565,0.9024577536146654
1374.683029,0.9123447275871147
1376.868567,0.9103502217272984
1379.052264,0.87262819486239
1381.234119,0.8905109170888205
1383.414134,0.9052117374271773
1385.592306,0.917667251566552
1387.768638,0.9049674160821516
1389.943128,0.9010922767085103
1392.115776,0.9055772859146649
1394.286584,0.9068162778192091
1396.45555,0.9169623423597563
1398.622674,0.9153972818290484
1400.787958,0.9160851100374565
1402.9514,0.9270548617189975
1405.113,0.9136161521326729
1407.27276,0.9211447463128566
1409.430678,0.8883468050323102
1411.586754,0.9199495975369636
1413.74099,0.8877998839342927
1415.893383,0.899097352267248
1418.043936,0.8967537348970801
1420.192647,0.9147085456130112
1422.339517,0.9215394285210599
1424.484546,0.9237076114240342
1426.627733,0.9185964050226786
1428.769079,0.8914716834704411
1430.908583,0.9206854607391345
1433.046246,0.9277748806736587
1435.182068,0.885061614577903
1436.249288,0.9079121749276448
1438.382348,0.9327779093285853
1440.513567,0.9140597909052448
1442.642944,0.9378107471602711
1444.77048,0.91882215424494
1446.896174,0.9306214073916587
1449.020027,0.9291259391983524
1451.142039,0.9250113568846188
1453.262209,0.9415929731725614
1455.380538,0.9232826340774423
1457.497026,0.9401548829550344
1459.611672,0.9155398013226699
1461.724477,0.9179440598811845
1463.835441,0.9208012679249045
1465.944563,0.9326407149313626
1468.051844,0.9433358303793908
1470.157284,0.9275727556959779
1472.260882,0.9301254148377351
1474.362639,0.9363792074777558
1476.462554,0.9461060220570902
1478.560629,0.9391735357352696
1480.656861,0.9438047559633255
1482.751253,0.9435919835895884
1484.843803,0.940703217130098
1486.934512,0.9529410715276423
1489.02338,0.9387899002434493
1491.110406,0.9440618835763599
1493.195591,0.9445533788281308
1495.278934,0.9331346684083918
1497.360436,0.9602418509125822
1499.440097,0.960226707548988
1501.517916,0.953657381490511
