Wavelength (nm),Absorbance (AU) 2024-10-08 14:41:34,Absorbance (AU) 2024-10-08 14:56:44,Absorbance (AU) 2024-10-08 15:11:54,Absorbance (AU) 2024-10-08 15:27:03,Absorbance (AU) 2024-10-08 15:42:13,Absorbance (AU) 2024-10-08 15:57:22,Absorbance (AU) 2024-10-08 16:12:32,Absorbance (AU) 2024-10-08 16:27:41,Absorbance (AU) 2024-10-08 16:42:51,Absorbance (AU) 2024-10-08 16:58:00,Absorbance (AU) 2024-10-08 17:13:09,Absorbance (AU) 2024-10-08 17:28:19,Absorbance (AU) 2024-10-08 17:43:28,Absorbance (AU) 2024-10-08 17:58:38,Absorbance (AU) 2024-10-08 18:13:47,Absorbance (AU) 2024-10-08 18:28:57,Absorbance (AU) 2024-10-08 18:44:06,Absorbance (AU) 2024-10-08 18:59:16,Absorbance (AU) 2024-10-08 19:14:25,Absorbance (AU) 2024-10-08 19:29:35,Absorbance (AU) 2024-10-08 19:44:44,Absorbance (AU) 2024-10-08 19:59:54,Absorbance (AU) 2024-10-08 20:15:03,Absorbance (AU) 2024-10-08 20:30:12
901.841506,1.647249,1.650538,1.657864,1.627602,1.633912,1.628229,1.640314,1.619535,1.666455,1.675919,1.701141,1.68132,1.692085,1.695002,1.703621,1.68655,1.701388,1.708122,1.718808,1.723469,1.705616,1.730557,1.724251,1.72191
904.394392,1.651738,1.649213,1.646911,1.620005,1.622168,1.619417,1.62593,1.615711,1.662203,1.670056,1.706785,1.686887,1.688032,1.682334,1.690102,1.689181,1.699422,1.701784,1.707264,1.715985,1.702495,1.720164,1.713545,1.720411
905.670145,1.635264,1.644103,1.638057,1.617726,1.6126,1.627186,1.622334,1.611092,1.659807,1.670673,1.688734,1.675227,1.678949,1.69371,1.690763,1.68515,1.698514,1.699897,1.70407,1.711591,1.702443,1.71088,1.71088,1.715879
908.220269,1.644868,1.644091,1.637164,1.612128,1.62197,1.61285,1.613753,1.607112,1.64838,1.656088,1.681334,1.677965,1.677546,1.670481,1.68218,1.672133,1.690518,1.686863,1.702111,1.716078,1.701447,1.707465,1.695948,1.706344
910.768552,1.637986,1.633809,1.635983,1.606323,1.605645,1.604798,1.612129,1.597257,1.654727,1.650575,1.679707,1.671548,1.667233,1.678904,1.678303,1.67076,1.688227,1.690486,1.689047,1.704294,1.69629,1.693793,1.694001,1.700906
913.314994,1.627003,1.628701,1.628531,1.600534,1.616453,1.598942,1.613485,1.594044,1.642358,1.653925,1.687472,1.671031,1.670468,1.675746,1.6786,1.678982,1.681473,1.683786,1.699322,1.693949,1.690797,1.696528,1.696727,1.709041
915.859594,1.63337,1.629646,1.629646,1.607797,1.614907,1.606726,1.616312,1.598395,1.649435,1.660197,1.681464,1.670169,1.676049,1.667875,1.68092,1.668403,1.680557,1.683832,1.690457,1.698694,1.696432,1.70249,1.693621,1.700398
918.402353,1.64356,1.639648,1.641834,1.61615,1.620451,1.619855,1.622992,1.605653,1.663831,1.659081,1.694712,1.67772,1.671473,1.676362,1.687348,1.681477,1.70005,1.691892,1.702744,1.712213,1.698799,1.710559,1.709826,1.714613
920.943271,1.652903,1.64734,1.655331,1.627911,1.630634,1.623647,1.631066,1.618863,1.672084,1.670663,1.698829,1.696146,1.692318,1.691821,1.703224,1.690994,1.702884,1.707836,1.706807,1.712151,1.713888,1.722328,1.720026,1.727149
923.482347,1.672556,1.672556,1.674328,1.651268,1.658058,1.649587,1.651408,1.639361,1.684967,1.691693,1.723985,1.714465,1.71414,1.71333,1.717397,1.71123,1.732193,1.724981,1.733548,1.745938,1.732024,1.745066,1.737639,1.744718
926.019582,1.702805,1.696495,1.698393,1.675313,1.680477,1.667339,1.674619,1.662731,1.711163,1.716775,1.744021,1.736288,1.731366,1.735809,1.742074,1.733106,1.747283,1.762617,1.753053,1.760586,1.757054,1.774832,1.760755,1.772223
928.554976,1.720861,1.720427,1.721876,1.697738,1.699251,1.697601,1.700631,1.68689,1.748667,1.739653,1.772792,1.760245,1.761675,1.763109,1.770027,1.761675,1.775904,1.773446,1.774264,1.790616,1.783031,1.792149,1.783198,1.794202
931.088528,1.7488,1.748362,1.747052,1.72605,1.728829,1.725634,1.733877,1.716595,1.76184,1.772809,1.798059,1.78708,1.785806,1.793505,1.790923,1.793019,1.799205,1.801177,1.808652,1.820714,1.80882,1.819682,1.818481,1.821404
933.620239,1.774256,1.772202,1.778394,1.746347,1.759793,1.749392,1.761646,1.743734,1.793501,1.799071,1.82988,1.816223,1.813317,1.814445,1.822916,1.812674,1.826053,1.832395,1.835094,1.844846,1.84037,1.846927,1.847275,1.848669
936.150109,1.80525,1.808438,1.804193,1.786169,1.787473,1.777572,1.78458,1.780847,1.826001,1.834167,1.852995,1.848796,1.841995,1.840845,1.852826,1.841338,1.857065,1.856044,1.853671,1.871266,1.865842,1.870914,1.865842,1.872853
938.678137,1.829199,1.824305,1.836331,1.808919,1.809506,1.805847,1.814383,1.798621,1.849666,1.852902,1.880909,1.869118,1.866932,1.870638,1.875914,1.873523,1.883516,1.883864,1.892674,1.905499,1.890012,1.902575,1.895352,1.895173
941.204324,1.85697,1.850185,1.857607,1.833447,1.841812,1.830594,1.840432,1.831643,1.874659,1.885222,1.903771,1.897092,1.892236,1.895178,1.897267,1.897616,1.903949,1.905546,1.907507,1.918177,1.919094,1.92743,1.921485,1.92968
943.72867,1.877684,1.878498,1.877034,1.857813,1.8625,1.857658,1.862343,1.84935,1.896125,1.903485,1.932943,1.916983,1.919663,1.916094,1.92308,1.91841,1.929081,1.940395,1.934979,1.94626,1.931467,1.948744,1.941148,1.953366
946.251174,1.900352,1.900352,1.900855,1.873866,1.879898,1.874181,1.880378,1.868383,1.923582,1.917788,1.949812,1.936317,1.932331,1.932872,1.941812,1.939789,1.950187,1.953962,1.952071,1.959687,1.953962,1.975531,1.959495,1.971367
948.771837,1.915173,1.902778,1.910946,1.888484,1.895735,1.8853,1.898669,1.878533,1.928633,1.93481,1.959875,1.951481,1.952221,1.950374,1.961762,1.957246,1.961384,1.96233,1.962141,1.984277,1.96518,1.970744,1.979917,1.976772
951.290658,1.92074,1.919224,1.920234,1.892005,1.904832,1.896292,1.905972,1.893113,1.942014,1.947006,1.970587,1.964197,1.960112,1.957533,1.970398,1.964757,1.974008,1.975154,1.977264,1.984827,1.971534,1.993521,1.984827,1.985415
953.807639,1.924371,1.929411,1.930595,1.908785,1.904935,1.903818,1.90782,1.897335,1.947703,1.955888,1.981219,1.9705,1.965329,1.969386,1.969572,1.971988,1.97894,1.982745,1.987355,1.98929,1.987355,1.995148,1.9926,1.995542
956.322778,1.935965,1.928441,1.927613,1.906148,1.915861,1.917151,1.915378,1.904419,1.946895,1.961851,1.982004,1.977712,1.966893,1.98088,1.966531,1.980132,1.979014,1.986527,1.982754,1.997853,1.980693,2.004319,1.999217,1.998827
958.836075,1.929206,1.930186,1.932648,1.909262,1.915545,1.906464,1.916337,1.914597,1.951138,1.959636,1.976053,1.962799,1.974782,1.973153,1.973153,1.974057,1.990851,1.984315,1.989536,1.999787,1.988225,1.999787,1.998253,2.002678
961.347531,1.937674,1.936857,1.934576,1.914107,1.917999,1.915038,1.918468,1.903542,1.955716,1.959658,1.979198,1.972409,1.967649,1.971523,1.98064,1.973829,1.98646,1.991617,1.987927,1.995713,1.986643,2.004784,1.995152,2.002689
963.857146,1.93348,1.934118,1.93348,1.908701,1.920913,1.914154,1.911267,1.910511,1.950711,1.964355,1.974045,1.978264,1.972821,1.970212,1.982883,1.976853,1.986469,1.990085,1.987912,2.002984,1.993,2.004671,2.001677,2.005987
966.36492,1.934086,1.929558,1.936762,1.906862,1.915047,1.906126,1.919881,1.908339,1.946666,1.964644,1.986752,1.972631,1.967685,1.968025,1.976075,1.975557,1.984278,1.981118,1.989061,1.993538,1.991742,2.000066,1.998243,2.001897
968.870852,1.933076,1.927567,1.930313,1.905914,1.919731,1.907654,1.915421,1.902313,1.952928,1.961557,1.975594,1.969188,1.963865,1.968519,1.97815,1.972548,1.985211,1.983825,1.989399,1.994159,1.986777,1.999151,1.99239,2.000228
971.374943,1.921348,1.933165,1.92834,1.905127,1.913741,1.904985,1.913017,1.899478,1.949859,1.954453,1.973831,1.971505,1.964278,1.973331,1.976168,1.963302,1.976671,1.987018,1.982747,1.993939,1.986674,1.996212,1.997793,1.996563
973.877192,1.925699,1.926581,1.924673,1.908435,1.906043,1.90033,1.91013,1.897157,1.946441,1.951396,1.974747,1.9679,1.963715,1.97131,1.971963,1.962435,1.975076,1.980703,1.980037,1.989623,1.985898,1.991669,1.988435,1.996997
976.3776,1.923344,1.921908,1.926954,1.896845,1.899424,1.895764,1.903251,1.897794,1.939905,1.947592,1.965917,1.959931,1.957746,1.956192,1.963544,1.963544,1.970541,1.973437,1.977327,1.990554,1.977002,1.992573,1.983725,1.985879
978.876167,1.919039,1.917358,1.915266,1.893818,1.895942,1.896742,1.90103,1.890125,1.937242,1.940769,1.96489,1.953042,1.957006,1.959927,1.961781,1.961008,1.970543,1.97515,1.971175,1.983211,1.979484,1.987134,1.984025,1.981263
981.372892,1.913422,1.907179,1.908664,1.890394,1.897716,1.886779,1.896531,1.885368,1.934714,1.933424,1.964113,1.952443,1.953341,1.953191,1.958618,1.951994,1.961204,1.961357,1.967816,1.981669,1.97343,1.983432,1.973901,1.98601
983.867776,1.908065,1.906202,1.908999,1.882812,1.891966,1.886857,1.891196,1.880678,1.922848,1.93332,1.956393,1.944921,1.950325,1.947834,1.953867,1.951797,1.95224,1.96149,1.960286,1.972176,1.967412,1.977933,1.973725,1.974035
986.360819,1.90016,1.900289,1.904319,1.878582,1.885281,1.877353,1.882788,1.869567,1.917043,1.926974,1.952186,1.943095,1.936152,1.940673,1.94899,1.940673,1.956583,1.953354,1.955553,1.969138,1.960282,1.970809,1.967775,1.96929
987.60665,1.906574,1.896128,1.894474,1.871361,1.883691,1.87317,1.878644,1.871361,1.918484,1.925518,1.944897,1.939654,1.938247,1.937966,1.938809,1.938247,1.944612,1.947758,1.949916,1.962501,1.957923,1.962056,1.960723,1.971199
990.096931,1.893995,1.891119,1.895504,1.870191,1.869241,1.869597,1.880772,1.861837,1.911666,1.917191,1.943098,1.931453,1.927098,1.932823,1.937375,1.9353,1.942676,1.947192,1.946625,1.957235,1.951468,1.958107,1.95319,1.964997
992.58537,1.888295,1.884266,1.887437,1.860612,1.86851,1.863152,1.867106,1.859118,1.898976,1.906971,1.935692,1.926486,1.925415,1.924481,1.933236,1.926218,1.939816,1.93954,1.942866,1.952714,1.943841,1.953284,1.95101,1.960902
995.071968,1.879943,1.878155,1.883181,1.851616,1.862267,1.853186,1.862611,1.84994,1.899118,1.907566,1.929367,1.922461,1.924309,1.919441,1.925502,1.920226,1.930574,1.929501,1.934213,1.945598,1.938567,1.947687,1.942965,1.951333
997.556725,1.8742,1.871516,1.873031,1.848299,1.8562,1.843364,1.857437,1.841949,1.889934,1.897402,1.92113,1.911585,1.906637,1.911712,1.919698,1.910947,1.924271,1.924666,1.928363,1.94142,1.929159,1.938424,1.939375,1.944575
1000.03964,1.868429,1.86171,1.865797,1.83764,1.850223,1.843344,1.84432,1.831799,1.878296,1.894443,1.911466,1.903306,1.900826,1.906051,1.903182,1.908687,1.91554,1.919783,1.920558,1.930242,1.919137,1.935969,1.929581,1.936103
1002.520714,1.863389,1.85501,1.854126,1.833637,1.836914,1.832375,1.839256,1.827986,1.874935,1.879827,1.902554,1.892306,1.892668,1.893877,1.899111,1.896547,1.907645,1.914189,1.915332,1.924584,1.916733,1.927712,1.924974,1.926928
1004.999947,1.849583,1.847197,1.850018,1.827225,1.830438,1.827535,1.829503,1.820156,1.86666,1.871093,1.894327,1.887272,1.888698,1.889412,1.893243,1.892642,1.899663,1.905931,1.905807,1.917854,1.910912,1.92491,1.916965,1.923619
1007.477338,1.845126,1.841283,1.841496,1.820636,1.821752,1.818311,1.823176,1.810026,1.859291,1.866663,1.890276,1.8797,1.883314,1.883314,1.883782,1.879816,1.896144,1.89326,1.898684,1.906886,1.906763,1.912484,1.91311,1.909738
1009.952888,1.835915,1.835497,1.834452,1.808737,1.815574,1.811895,1.816073,1.80317,1.847152,1.853644,1.88342,1.877276,1.876242,1.875439,1.879238,1.879932,1.887055,1.885175,1.892623,1.905083,1.890363,1.906681,1.898869,1.907297
1012.426597,1.826023,1.82684,1.824189,1.802768,1.808417,1.802671,1.80568,1.797287,1.845653,1.855156,1.87458,1.865541,1.867783,1.866549,1.870942,1.867671,1.874923,1.880095,1.880789,1.899122,1.886971,1.897795,1.894794,1.897313
1014.898464,1.819007,1.814414,1.821523,1.798042,1.799191,1.79766,1.801017,1.787274,1.835162,1.84592,1.864909,1.861575,1.859587,1.858707,1.865691,1.863684,1.871882,1.876669,1.873244,1.887344,1.876784,1.888285,1.885235,1.893139
1017.36849,1.816016,1.814623,1.80792,1.791979,1.793112,1.788131,1.796243,1.786079,1.8303,1.837255,1.860138,1.84635,1.853243,1.850753,1.86235,1.853352,1.860911,1.86346,1.873809,1.878501,1.872218,1.885228,1.881504,1.88406
1019.836674,1.807111,1.8076,1.804288,1.779858,1.785397,1.780685,1.789035,1.774571,1.825158,1.82812,1.850628,1.84388,1.848905,1.844305,1.850736,1.847509,1.856716,1.861671,1.86456,1.874596,1.860123,1.875281,1.869831,1.876425
1022.303017,1.800954,1.795497,1.797786,1.772973,1.778885,1.776693,1.781088,1.766785,1.816349,1.82319,1.843002,1.837623,1.835636,1.838252,1.844278,1.838357,1.850604,1.851252,1.852335,1.87072,1.856804,1.87072,1.866778,1.869477
1024.767519,1.793049,1.79182,1.792198,1.765358,1.773066,1.765714,1.773066,1.757785,1.810731,1.810829,1.834963,1.83465,1.830296,1.831639,1.838838,1.834026,1.840631,1.845411,1.850676,1.862179,1.850352,1.863513,1.860517,1.865523
1027.23018,1.78616,1.788313,1.786534,1.760595,1.770299,1.7613,1.766356,1.754737,1.803399,1.809859,1.834718,1.823889,1.817921,1.822872,1.831078,1.829631,1.838915,1.838177,1.842089,1.853605,1.844646,1.855573,1.851864,1.86031
1029.690999,1.78065,1.776054,1.779174,1.758757,1.760077,1.755867,1.762109,1.750921,1.793878,1.802634,1.824972,1.817767,1.815658,1.819178,1.828362,1.822625,1.829705,1.835014,1.843367,1.850254,1.832924,1.851884,1.846259,1.852646
1032.149977,1.777479,1.773088,1.774912,1.748234,1.755866,1.750907,1.755691,1.745406,1.793304,1.797617,1.827622,1.812111,1.809827,1.814708,1.818431,1.819139,1.827725,1.830833,1.828862,1.842851,1.832291,1.843278,1.84125,1.844564
1034.607113,1.768639,1.767646,1.769181,1.744056,1.748,1.747914,1.749813,1.736693,1.788412,1.792783,1.818247,1.809923,1.806362,1.808535,1.811914,1.811416,1.822214,1.825291,1.821806,1.83655,1.829635,1.840476,1.834233,1.839943
1037.062409,1.765623,1.760974,1.760796,1.736506,1.744224,1.738106,1.742175,1.730412,1.779507,1.787848,1.812571,1.800131,1.799644,1.801105,1.805222,1.805517,1.81468,1.819233,1.816798,1.829108,1.820251,1.83329,1.827136,1.835713
1039.515862,1.760886,1.759108,1.757691,1.737054,1.738405,1.735538,1.741206,1.724749,1.780568,1.787048,1.807387,1.800013,1.799331,1.798068,1.805606,1.802849,1.81388,1.811471,1.81388,1.82675,1.816809,1.83207,1.828412,1.83207
1041.967475,1.756709,1.754943,1.756002,1.730188,1.73851,1.728194,1.738001,1.722676,1.778395,1.781569,1.802398,1.795957,1.796732,1.792003,1.798873,1.796441,1.803678,1.804468,1.811339,1.82438,1.814057,1.828119,1.820365,1.831681
1044.417246,1.753517,1.747304,1.751056,1.730268,1.732781,1.727105,1.735224,1.720439,1.767214,1.77483,1.799,1.79153,1.791337,1.790665,1.794425,1.794328,1.804218,1.803031,1.8097,1.820978,1.810905,1.82626,1.821596,1.822628
1046.865176,1.753836,1.746649,1.750227,1.724698,1.732537,1.728767,1.728517,1.714005,1.763126,1.771421,1.796911,1.788981,1.783458,1.788598,1.793896,1.791962,1.800734,1.801325,1.806882,1.816167,1.809084,1.819959,1.815148,1.820989
1049.311264,1.747513,1.744124,1.748474,1.724822,1.73007,1.721441,1.728648,1.717352,1.763779,1.771363,1.792128,1.78847,1.785794,1.783039,1.793775,1.789622,1.797087,1.802796,1.807479,1.813124,1.806578,1.815975,1.809185,1.81833
1051.755511,1.748677,1.741898,1.744927,1.721679,1.729486,1.72135,1.725316,1.713444,1.764465,1.769858,1.790964,1.782266,1.783213,1.786928,1.788942,1.78255,1.800926,1.800926,1.802212,1.810616,1.805395,1.81713,1.811324,1.817746
1054.197917,1.7461,1.74012,1.742623,1.720351,1.719447,1.718136,1.724649,1.713417,1.7593,1.768574,1.791886,1.78116,1.778802,1.786873,1.792274,1.787257,1.792663,1.800405,1.799319,1.813454,1.802785,1.816727,1.808792,1.815292
1056.638481,1.745571,1.739156,1.742092,1.717095,1.723937,1.717259,1.724686,1.709715,1.756537,1.766778,1.788881,1.78085,1.778206,1.782273,1.78456,1.782844,1.791397,1.7951,1.796866,1.810847,1.797161,1.814517,1.809935,1.815952
1059.077204,1.743338,1.739783,1.73961,1.71642,1.723597,1.717567,1.720778,1.710165,1.763653,1.769623,1.788911,1.780486,1.780391,1.78134,1.785541,1.780391,1.797898,1.798195,1.798096,1.810923,1.802762,1.813269,1.803961,1.813371
1061.514086,1.742449,1.738206,1.740712,1.716197,1.719403,1.716935,1.721388,1.711877,1.753822,1.764401,1.79101,1.778729,1.778068,1.779961,1.785402,1.784443,1.795116,1.795509,1.800752,1.811941,1.802947,1.813169,1.807269,1.812146
1063.949127,1.74,1.738961,1.739827,1.714503,1.720013,1.715977,1.721423,1.710841,1.75787,1.764238,1.787872,1.778017,1.778206,1.778964,1.784882,1.783826,1.791662,1.793423,1.794502,1.807568,1.800737,1.811638,1.80434,1.814612
1066.382326,1.745349,1.738298,1.741418,1.716164,1.721946,1.715099,1.719707,1.708922,1.757811,1.76299,1.785497,1.780045,1.777864,1.77976,1.782046,1.78033,1.795132,1.794935,1.796315,1.807105,1.800878,1.816307,1.804785,1.813115
1067.598235,1.744095,1.738876,1.742697,1.720177,1.720177,1.717041,1.723836,1.706883,1.758779,1.766634,1.785278,1.781637,1.777176,1.780779,1.782975,1.785182,1.788367,1.796091,1.798564,1.808497,1.800452,1.807585,1.804758,1.815042
1070.028672,1.743321,1.740188,1.740014,1.719192,1.724598,1.717378,1.724514,1.708902,1.764445,1.766744,1.789361,1.780229,1.779659,1.781086,1.784243,1.782327,1.79346,1.795622,1.799681,1.81056,1.804483,1.809236,1.804583,1.815071
1072.457267,1.746329,1.741521,1.746153,1.72131,1.725982,1.719571,1.726401,1.710736,1.76117,1.767676,1.793152,1.786449,1.782323,1.783471,1.789351,1.788091,1.794034,1.797382,1.799464,1.812266,1.801654,1.813906,1.810428,1.816894
1074.884022,1.748585,1.74437,1.743933,1.72289,1.721644,1.718916,1.726481,1.713348,1.764033,1.769276,1.793246,1.786261,1.785588,1.78848,1.792855,1.783671,1.801838,1.79955,1.806048,1.813463,1.806048,1.817788,1.808776,1.821633
1077.308934,1.745856,1.745419,1.748574,1.7252,1.73192,1.724284,1.731666,1.71998,1.76571,1.772163,1.798289,1.787957,1.784026,1.785077,1.79691,1.793482,1.803548,1.801655,1.80295,1.815287,1.807863,1.819616,1.816314,1.818271
1079.732006,1.753884,1.748767,1.74658,1.725545,1.7325,1.72696,1.731572,1.721325,1.772467,1.773766,1.799109,1.792173,1.790335,1.796948,1.793921,1.795676,1.806358,1.803265,1.808567,1.819885,1.809171,1.820402,1.817002,1.825395
1082.153236,1.753114,1.752144,1.754616,1.73059,1.738879,1.730255,1.73905,1.723527,1.775288,1.784295,1.801211,1.79185,1.796408,1.794268,1.799342,1.796505,1.807866,1.810677,1.814929,1.824703,1.816356,1.823041,1.821593,1.830675
1084.572625,1.762071,1.749954,1.758943,1.735542,1.73842,1.736471,1.739611,1.726771,1.778803,1.783018,1.806317,1.805523,1.798443,1.801969,1.803643,1.797761,1.810809,1.81677,1.81677,1.825297,1.815551,1.826128,1.826024,1.832832
1086.990173,1.766513,1.759442,1.759265,1.741018,1.746584,1.738473,1.745809,1.733929,1.784475,1.788158,1.810639,1.803801,1.802623,1.800666,1.807058,1.804687,1.817688,1.817485,1.821665,1.8313,1.8263,1.833505,1.827337,1.838482
1089.405879,1.771053,1.763497,1.767619,1.747219,1.751969,1.746361,1.749717,1.736696,1.786008,1.794066,1.815341,1.807376,1.8058,1.808661,1.817053,1.812038,1.822229,1.82366,1.827777,1.830578,1.828916,1.838984,1.833921,1.838878
1091.819744,1.771049,1.769069,1.771772,1.747687,1.75493,1.75069,1.753801,1.741995,1.790141,1.796888,1.820502,1.815675,1.810902,1.815375,1.820199,1.81368,1.826714,1.827844,1.831044,1.839306,1.827227,1.842592,1.839306,1.851731
1094.231768,1.777189,1.769886,1.775012,1.753737,1.755723,1.754427,1.757371,1.747663,1.794441,1.802077,1.822987,1.820268,1.818964,1.820569,1.825419,1.821877,1.829093,1.832901,1.836639,1.847086,1.837265,1.851812,1.844849,1.85138
1096.64195,1.77831,1.78571,1.784147,1.75917,1.764315,1.75969,1.764666,1.750842,1.806375,1.808215,1.82726,1.824732,1.823424,1.827564,1.828682,1.822721,1.836587,1.838351,1.840019,1.8492,1.838872,1.853272,1.848454,1.855539
1099.050291,1.788679,1.788219,1.783821,1.766486,1.771685,1.763083,1.772217,1.757814,1.80974,1.819328,1.83875,1.827114,1.827819,1.829639,1.833404,1.828425,1.839061,1.84679,1.849433,1.856919,1.847106,1.856703,1.849327,1.856164
1101.45679,1.795109,1.790762,1.795016,1.773,1.776103,1.770533,1.776281,1.761751,1.81518,1.820272,1.843539,1.831851,1.832154,1.837451,1.838271,1.836734,1.846459,1.850664,1.849504,1.863204,1.854378,1.866917,1.861143,1.866478
1103.861448,1.800707,1.799773,1.7994,1.779357,1.781678,1.777226,1.785996,1.773257,1.819239,1.826224,1.846631,1.843214,1.839926,1.840029,1.847984,1.850179,1.851754,1.858112,1.859287,1.868371,1.858966,1.871442,1.865865,1.874202
1106.264265,1.806176,1.801871,1.809859,1.785964,1.794393,1.788304,1.793205,1.778664,1.83264,1.836757,1.855206,1.848415,1.846038,1.850806,1.85321,1.857846,1.863389,1.865109,1.873154,1.878453,1.870201,1.877787,1.870201,1.881574
1108.665241,1.818565,1.814548,1.81818,1.80216,1.804758,1.794821,1.801605,1.790656,1.843173,1.84685,1.869369,1.861449,1.862936,1.858384,1.861661,1.860178,1.873711,1.880749,1.877546,1.886104,1.882193,1.886441,1.884983,1.894148
1111.064375,1.833103,1.830938,1.831528,1.810423,1.815983,1.810516,1.818837,1.804471,1.850105,1.860909,1.883911,1.87687,1.869513,1.876216,1.885689,1.875454,1.886469,1.893328,1.883467,1.904579,1.896171,1.902838,1.896513,1.899377
1113.461668,1.845304,1.842892,1.849048,1.823587,1.830446,1.824259,1.830738,1.820721,1.866997,1.874261,1.899198,1.889608,1.890949,1.888828,1.897036,1.891285,1.901257,1.905171,1.905866,1.916537,1.909355,1.921553,1.91299,1.920473
1115.857119,1.860709,1.860294,1.866131,1.846138,1.853719,1.846438,1.850063,1.836623,1.886759,1.895203,1.918952,1.911201,1.909923,1.908185,1.917415,1.911085,1.916118,1.928295,1.927207,1.935129,1.926001,1.934023,1.93048,1.939207
1118.250729,1.890932,1.889281,1.894809,1.869522,1.877041,1.869522,1.875761,1.867428,1.917185,1.922727,1.93831,1.933783,1.932325,1.932204,1.944504,1.937573,1.946505,1.944254,1.951167,1.958836,1.94965,1.964808,1.962592,1.960127
1120.642498,1.921008,1.917502,1.921595,1.899377,1.908288,1.89804,1.910917,1.890318,1.945259,1.948122,1.970418,1.959768,1.964023,1.964412,1.966101,1.96558,1.97571,1.975577,1.971999,1.981876,1.983363,1.992397,1.990052,1.989228
1123.032425,1.948716,1.948344,1.953207,1.932873,1.940722,1.935153,1.943044,1.930129,1.980376,1.982115,2.00836,2.000458,2.001578,1.996284,2.001859,1.999899,2.010072,2.008218,2.011647,2.024017,2.012941,2.021809,2.019611,2.028319
1125.420511,1.988582,1.995666,1.99361,1.975668,1.976325,1.976456,1.978828,1.970194,2.012897,2.028167,2.045841,2.03323,2.034579,2.029057,2.036386,2.046303,2.046612,2.052052,2.044302,2.051739,2.049557,2.061378,2.05867,2.061858
1127.806756,2.024961,2.023795,2.037851,2.017006,2.017867,2.012585,2.023504,2.007788,2.054873,2.059906,2.078658,2.071937,2.074711,2.079981,2.081143,2.078823,2.087671,2.08953,2.090548,2.093615,2.084646,2.103472,2.094642,2.11017
1130.191159,2.064835,2.06309,2.070595,2.057583,2.063565,2.044039,2.062141,2.052146,2.091044,2.100777,2.119839,2.112327,2.111618,2.114104,2.118398,2.11553,2.121647,2.118938,2.116962,2.1321,2.116604,2.132285,2.130617,2.136952
1132.573721,2.101213,2.108137,2.111289,2.088855,2.095244,2.092374,2.105528,2.09187,2.130698,2.1383,2.153139,2.148328,2.142057,2.154302,2.153914,2.147754,2.157223,2.158788,2.162332,2.166903,2.170715,2.165706,2.167302,2.167502
1134.954442,2.135017,2.138907,2.146983,2.130431,2.131162,2.121938,2.132626,2.121759,2.166961,2.16915,2.18707,2.180467,2.179445,2.183343,2.176391,2.181082,2.193774,2.184789,2.200369,2.200369,2.188527,2.196527,2.196315,2.197804
1137.333321,2.168263,2.16688,2.181114,2.152334,2.162953,2.151001,2.151953,2.147969,2.195198,2.194567,2.218106,2.21369,2.209972,2.199216,2.209972,2.204131,2.212593,2.209972,2.215672,2.222119,2.222567,2.237159,2.216114,2.22617
1139.710359,2.183244,2.182227,2.189809,2.171989,2.181821,2.176576,2.184671,2.188364,2.213818,2.220422,2.22803,2.229839,2.228255,2.2222,2.233024,2.234396,2.242488,2.23371,2.237154,2.242955,2.243891,2.236923,2.243891,2.245298
1142.085556,2.19697,2.204548,2.210751,2.192196,2.204973,2.188701,2.198433,2.188701,2.227216,2.237174,2.252553,2.250188,2.238321,2.245495,2.24807,2.246196,2.244097,2.24433,2.24854,2.257084,2.257084,2.261177,2.257084,2.255409
1144.458911,2.211343,2.210487,2.221093,2.209632,2.205174,2.207503,2.205596,2.197635,2.2399,2.238758,2.26389,2.24682,2.253615,2.262924,2.259799,2.244039,2.261239,2.252907,2.257172,2.273178,2.253379,2.276152,2.268998,2.286727
1145.644899,2.21494,2.217315,2.228055,2.212792,2.214724,2.202,2.209803,2.211081,2.249433,2.244104,2.261008,2.263168,2.25177,2.272655,2.259336,2.256246,2.267035,2.265098,2.268982,2.268251,2.265339,2.267764,2.270203,2.268494
1148.015492,2.227451,2.217657,2.229658,2.210825,2.220898,2.217227,2.21231,2.213588,2.2519,2.254001,2.266101,2.262985,2.259653,2.26203,2.272891,2.262507,2.27338,2.272891,2.27094,2.283529,2.269726,2.288821,2.283279,2.280783
1150.384244,2.224948,2.225166,2.237071,2.21379,2.219548,2.216553,2.227564,2.222132,2.250693,2.261198,2.273905,2.273905,2.265472,2.269307,2.267146,2.27003,2.275856,2.278061,2.27003,2.282754,2.281514,2.272691,2.283499,2.281762
1152.751154,2.237047,2.237047,2.234167,2.211163,2.225208,2.232184,2.227811,2.224127,2.261504,2.268139,2.284933,2.272458,2.265758,2.271013,2.264099,2.27682,2.273907,2.281719,2.289674,2.297267,2.282705,2.296502,2.277307,2.292948
1155.116224,2.23394,2.23614,2.252089,2.215255,2.235919,2.228488,2.232188,2.223532,2.258544,2.266513,2.283395,2.276321,2.270792,2.270792,2.27439,2.280942,2.280209,2.282658,2.282167,2.29511,2.278018,2.291838,2.291086,2.290336
1157.479452,2.240657,2.242433,2.246005,2.226925,2.235812,2.222654,2.225639,2.222867,2.265025,2.258746,2.286883,2.271159,2.285653,2.27378,2.278104,2.273541,2.284671,2.283937,2.290097,2.294336,2.288858,2.297859,2.281984,2.289601
1159.840838,2.233606,2.247919,2.250614,2.223332,2.234908,2.230154,2.228439,2.231661,2.276366,2.273032,2.277323,2.267377,2.277323,2.280207,2.28214,2.27422,2.276127,2.291939,2.288484,2.285789,2.296171,2.291691,2.300697,2.298932
1162.200383,2.237767,2.248556,2.248333,2.230863,2.239292,2.23842,2.238856,2.234086,2.263064,2.269333,2.286994,2.268399,2.275694,2.284323,2.284565,2.274746,2.278312,2.276406,2.28675,2.294115,2.284081,2.297097,2.303122,2.290908
1164.558087,2.230344,2.240021,2.240457,2.228434,2.23376,2.230557,2.237636,2.224429,2.279613,2.276054,2.285127,2.268558,2.271822,2.27629,2.276763,2.283201,2.288761,2.286093,2.286819,2.302856,2.289492,2.294394,2.295134,2.3006
1166.91395,2.235013,2.243652,2.246497,2.232455,2.237802,2.244526,2.241476,2.23203,2.276021,2.27065,2.28051,2.278851,2.266721,2.268797,2.288901,2.280272,2.278378,2.288417,2.288175,2.296964,2.28051,2.29328,2.290599,2.30518
1169.267971,2.23698,2.242138,2.239766,2.235275,2.239551,2.237836,2.242138,2.243654,2.265907,2.271422,2.290811,2.271191,2.281718,2.281009,2.291053,2.283617,2.287439,2.284569,2.293966,2.299358,2.296164,2.292507,2.292993,2.307574
1171.620151,2.248399,2.246008,2.257209,2.241049,2.240193,2.235935,2.233611,2.239124,2.269621,2.26484,2.28714,2.284053,2.282635,2.284526,2.288573,2.287617,2.292657,2.28595,2.284053,2.303659,2.286664,2.292899,2.296537,2.29947
1173.970489,2.245859,2.244783,2.248668,2.232286,2.236693,2.242212,2.25106,2.233122,2.273888,2.268181,2.298711,2.284353,2.287898,2.283413,2.283883,2.271824,2.288849,2.294113,2.282474,2.299929,2.299198,2.284118,2.297982,2.300174
1176.318986,2.239399,2.238977,2.262798,2.237504,2.244918,2.231871,2.249211,2.245131,2.273616,2.272477,2.287294,2.279359,2.279822,2.277974,2.282842,2.274759,2.292268,2.293222,2.297059,2.297541,2.2937,2.300202,2.294657,2.300445
1178.665642,2.238642,2.256162,2.258567,2.243274,2.241163,2.246247,2.24497,2.239271,2.275556,2.274873,2.300179,2.281062,2.286639,2.285705,2.288749,2.28361,2.288279,2.294426,2.298493,2.290869,2.296096,2.304787,2.297773,2.3043
1181.010457,2.25746,2.24629,2.254424,2.236644,2.246078,2.236436,2.248416,2.244597,2.267363,2.279095,2.285314,2.285779,2.285779,2.284156,2.300422,2.288808,2.302348,2.294221,2.294458,2.300182,2.290683,2.306713,2.298026,2.298504
1183.35343,2.245329,2.250191,2.260952,2.240521,2.251681,2.239068,2.247225,2.239275,2.293287,2.279426,2.29635,2.293522,2.284917,2.287226,2.296823,2.285378,2.295641,2.303741,2.296114,2.303501,2.299434,2.315935,2.303501,2.304945
1185.694562,2.248655,2.250976,2.255227,2.247394,2.244884,2.236619,2.254374,2.246347,2.281877,2.289669,2.303532,2.295021,2.291291,2.290364,2.290595,2.27916,2.29222,2.299019,2.299965,2.303771,2.300202,2.293852,2.3093,2.308334
1188.033852,2.242464,2.244529,2.260984,2.243289,2.249526,2.241641,2.250784,2.246189,2.280328,2.279205,2.297523,2.286668,2.285984,2.285302,2.296589,2.287124,2.290333,2.295191,2.296355,2.299868,2.293565,2.308416,2.304596,2.299398
1190.371301,2.247235,2.250559,2.256017,2.248478,2.246407,2.23198,2.240864,2.247235,2.275015,2.277671,2.293268,2.293959,2.279897,2.291202,2.290058,2.276563,2.293268,2.298827,2.292808,2.303044,2.292349,2.302573,2.303986,2.303279
1192.706909,2.245958,2.250495,2.259078,2.246368,2.241265,2.246163,2.246163,2.23183,2.26141,2.267404,2.292468,2.29224,2.280754,2.284549,2.287473,2.279422,2.292925,2.299605,2.300767,2.300302,2.299605,2.299837,2.286797,2.303101
1195.040675,2.245758,2.253987,2.250883,2.239486,2.240894,2.235288,2.245351,2.231721,2.275707,2.274834,2.293081,2.277457,2.2812,2.284084,2.286092,2.276144,2.290362,2.292854,2.29788,2.294447,2.294219,2.294903,2.300877,2.312128
1197.3726,2.246358,2.24575,2.251459,2.238518,2.238717,2.240515,2.239915,2.238319,2.270121,2.271838,2.279433,2.290967,2.282729,2.290294,2.28694,2.27834,2.287832,2.298907,2.292093,2.303973,2.283391,2.301894,2.294352,2.306296
1199.702684,2.245534,2.25141,2.255098,2.231281,2.240134,2.22779,2.240731,2.234801,2.264456,2.279861,2.287773,2.284239,2.286002,2.277471,2.274665,2.282921,2.289997,2.295607,2.279208,2.301748,2.300147,2.304274,2.288217,2.29493
1202.030926,2.241949,2.245535,2.251781,2.238787,2.243739,2.226552,2.241751,2.237018,2.265805,2.267486,2.285092,2.274058,2.2816,2.27792,2.2816,2.280731,2.2816,2.296638,2.290604,2.293499,2.290383,2.291048,2.29417,2.299347
1204.357327,2.240838,2.250186,2.238483,2.228805,2.239266,2.231301,2.230531,2.235557,2.270141,2.272886,2.281228,2.287755,2.284697,2.267622,2.274797,2.277358,2.282959,2.284262,2.284262,2.288853,2.289513,2.295274,2.294605,2.293493
1206.681887,2.238036,2.240181,2.243122,2.233971,2.234935,2.235128,2.23901,2.229943,2.268027,2.269279,2.281144,2.275171,2.271374,2.277295,2.280285,2.271794,2.276231,2.287417,2.289602,2.302494,2.282434,2.289602,2.285027,2.294669
1209.004605,2.227901,2.241732,2.235916,2.227334,2.230937,2.231509,2.237266,2.235723,2.265192,2.266843,2.283281,2.271208,2.278794,2.277308,2.275195,2.272882,2.281139,2.284787,2.279432,2.294817,2.280071,2.292397,2.28565,2.296142
1211.325482,2.232595,2.23834,2.23757,2.228807,2.229374,2.216536,2.229751,2.227114,2.254642,2.265586,2.284462,2.270332,2.270955,2.276181,2.27829,2.272412,2.27829,2.283819,2.281046,2.287905,2.280833,2.296194,2.290941,2.300399
1213.644518,2.233607,2.232091,2.236082,2.226267,2.223291,2.222735,2.22608,2.229828,2.254408,2.256604,2.271672,2.279407,2.269193,2.272502,2.274374,2.271258,2.273749,2.281733,2.275836,2.285781,2.280886,2.28322,2.290732,2.294647
1215.961712,2.227059,2.234956,2.231554,2.222979,2.225943,2.221321,2.227245,2.226501,2.260349,2.252969,2.267242,2.268061,2.262972,2.260953,2.268881,2.271969,2.276747,2.278631,2.273417,2.294006,2.269086,2.289895,2.283059,2.28925
1218.277065,2.233587,2.226297,2.240235,2.222238,2.214773,2.218945,2.221321,2.218581,2.253844,2.259209,2.275923,2.265655,2.269733,2.268097,2.27323,2.274678,2.270759,2.267282,2.274885,2.284527,2.281991,2.289001,2.2753,2.284739
1220.590577,2.222352,2.222169,2.234231,2.21527,2.225845,2.219433,2.222535,2.217437,2.251897,2.256626,2.275662,2.267459,2.258612,2.261809,2.265837,2.267866,2.263013,2.271131,2.27339,2.2836,2.275455,2.285713,2.272157,2.290828
1221.746642,2.229875,2.229875,2.231739,2.219038,2.217951,2.215965,2.214706,2.216145,2.246946,2.255739,2.269783,2.262905,2.268968,2.263106,2.265522,2.260903,2.264916,2.269986,2.272852,2.276978,2.275116,2.287681,2.275943,2.283242
1224.057392,2.217334,2.226082,2.239924,2.211242,2.217695,2.216973,2.219142,2.207875,2.255599,2.252066,2.261551,2.262551,2.264759,2.264759,2.264759,2.263553,2.269819,2.277212,2.275146,2.285365,2.270227,2.278664,2.2735,2.280329
1226.3663,2.215479,2.217817,2.231001,2.208539,2.214583,2.209599,2.215838,2.213867,2.24575,2.249226,2.267439,2.258237,2.250779,2.262214,2.266228,2.256459,2.256262,2.268046,2.267439,2.268452,2.267237,2.270483,2.272524,2.281619
1228.673367,2.213486,2.213843,2.225232,2.205712,2.204662,2.209582,2.206764,2.207466,2.241848,2.251275,2.259918,2.256361,2.252833,2.254006,2.257346,2.259323,2.263104,2.265911,2.257741,2.264505,2.267321,2.280849,2.262704,2.270562
1230.978592,2.211945,2.212122,2.219458,2.197813,2.215327,2.202299,2.206482,2.200914,2.236008,2.247787,2.256345,2.253799,2.246633,2.251462,2.256345,2.25556,2.257722,2.261284,2.269506,2.260688,2.256345,2.269506,2.264474,2.262477
1233.281976,2.204107,2.216093,2.2055,2.201161,2.200816,2.192951,2.200299,2.200127,2.236586,2.245482,2.261652,2.247975,2.251645,2.25087,2.25613,2.246823,2.254565,2.257307,2.251451,2.261851,2.257307,2.269059,2.268454,2.274954
1235.583519,2.203304,2.206782,2.208708,2.199853,2.208182,2.195748,2.197625,2.197796,2.227527,2.234544,2.252792,2.248542,2.241486,2.242244,2.243762,2.240164,2.25221,2.247198,2.254543,2.262609,2.254933,2.263007,2.253375,2.261222
1237.883221,2.201651,2.198224,2.204586,2.192963,2.191953,2.193301,2.19942,2.19669,2.227164,2.229726,2.24944,2.241447,2.236385,2.236385,2.245806,2.236012,2.242958,2.254658,2.246568,2.256411,2.253687,2.268283,2.253881,2.260923
1240.181081,2.196567,2.197584,2.205116,2.193026,2.191182,2.190848,2.196736,2.183557,2.225624,2.226893,2.247148,2.238298,2.240166,2.242042,2.240541,2.236067,2.245629,2.241666,2.248864,2.259693,2.246768,2.252893,2.251738,2.260084
1242.4771,2.194554,2.20524,2.204725,2.189556,2.192381,2.184288,2.186256,2.185927,2.219378,2.224553,2.247785,2.237121,2.232708,2.235093,2.238417,2.234174,2.244953,2.242888,2.242514,2.249683,2.246084,2.255813,2.249303,2.255813
1244.771277,2.191324,2.194476,2.200004,2.184764,2.188852,2.180069,2.18754,2.181844,2.217725,2.221961,2.240252,2.232188,2.233643,2.229113,2.234738,2.232733,2.236935,2.242105,2.254159,2.251304,2.247338,2.259153,2.25569,2.256649
1247.063613,2.197922,2.192457,2.192457,2.180927,2.188852,2.180927,2.189996,2.181569,2.222432,2.218221,2.238233,2.236044,2.233686,2.236773,2.24431,2.228112,2.246168,2.239515,2.241169,2.255962,2.242275,2.251414,2.245238,2.252547
1249.354108,2.191847,2.194634,2.193484,2.188916,2.185521,2.178651,2.190542,2.185038,2.211226,2.215519,2.237278,2.234385,2.234926,2.230438,2.242204,2.226882,2.245889,2.239278,2.251663,2.249419,2.243306,2.251289,2.24349,2.25054
1251.642762,2.194205,2.194696,2.196663,2.184511,2.188685,2.186432,2.189654,2.181803,2.210181,2.218222,2.236023,2.231192,2.224308,2.230659,2.234586,2.23244,2.244929,2.244012,2.239999,2.246954,2.240544,2.257032,2.246216,2.253834
1253.929574,2.189771,2.190576,2.199864,2.180065,2.187204,2.180065,2.187844,2.18259,2.218368,2.225822,2.244032,2.231985,2.227574,2.234475,2.230745,2.231099,2.234653,2.243303,2.244579,2.242939,2.242212,2.252129,2.250831,2.252129
1256.214544,2.185128,2.193918,2.20256,2.184495,2.188941,2.175582,2.195535,2.185286,2.211714,2.226773,2.238779,2.236458,2.229569,2.227471,2.232735,2.231149,2.236993,2.234504,2.243097,2.25464,2.247093,2.247458,2.243097,2.254083
1258.497674,2.192739,2.196275,2.196598,2.185909,2.194021,2.178875,2.182456,2.181675,2.21744,2.230163,2.239689,2.232262,2.229118,2.22964,2.238799,2.225305,2.243811,2.238621,2.250159,2.254751,2.242194,2.248882,2.246702,2.249611
1260.778962,2.198942,2.197491,2.202184,2.181996,2.191893,2.185427,2.196526,2.187309,2.219954,2.225756,2.237069,2.242391,2.239544,2.23919,2.234782,2.237069,2.236892,2.242212,2.242748,2.248322,2.255437,2.25839,2.253968,2.25728
1263.058409,2.199235,2.192694,2.202947,2.190168,2.187344,2.184693,2.187344,2.189068,2.227799,2.226771,2.247284,2.234546,2.231939,2.234023,2.241045,2.241931,2.247464,2.251796,2.252159,2.251252,2.252522,2.256172,2.248003,2.25856
1265.336014,2.204011,2.202559,2.209539,2.194898,2.195848,2.196007,2.200471,2.193003,2.22673,2.233593,2.24837,2.239514,2.243566,2.233766,2.246406,2.241095,2.245695,2.248908,2.258142,2.253048,2.252506,2.259242,2.250523,2.251784
1267.611778,2.201469,2.203873,2.209045,2.200671,2.201469,2.198285,2.200193,2.193082,2.234318,2.2383,2.246021,2.239171,2.239694,2.24744,2.250291,2.247618,2.254062,2.251366,2.250113,2.268177,2.257139,2.266874,2.261521,2.257139
1269.885701,2.210668,2.21083,2.219355,2.200879,2.208079,2.202787,2.205024,2.206468,2.236236,2.237098,2.253621,2.246866,2.251833,2.245985,2.247042,2.253621,2.256317,2.2538,2.256678,2.266532,2.2574,2.270798,2.257942,2.265058
1272.157782,2.212282,2.212282,2.219137,2.204896,2.209377,2.206811,2.203783,2.204419,2.245414,2.246464,2.267277,2.260892,2.257105,2.25442,2.259987,2.257464,2.262343,2.26198,2.257284,2.272268,2.264894,2.273571,2.26307,2.27544
1274.428022,2.221791,2.225928,2.233645,2.218183,2.212988,2.212827,2.212504,2.214605,2.253558,2.253204,2.266142,2.255512,2.256224,2.254978,2.266142,2.261606,2.271095,2.273686,2.26999,2.276479,2.269622,2.279478,2.273871,2.284586
1276.696421,2.224171,2.230312,2.24046,2.221378,2.228977,2.219906,2.220396,2.22269,2.25015,2.256495,2.270937,2.263115,2.26874,2.27112,2.264198,2.265465,2.277037,2.26874,2.281904,2.281904,2.280964,2.279463,2.287779,2.281151
1278.962978,2.234947,2.234275,2.247922,2.224642,2.236464,2.228271,2.230429,2.22993,2.262729,2.267961,2.283103,2.279734,2.272705,2.28048,2.278989,2.277873,2.279734,2.285364,2.284421,2.293179,2.286499,2.292987,2.298793,2.295687
1281.227694,2.243912,2.253765,2.25394,2.23814,2.241526,2.236793,2.24907,2.239999,2.281561,2.274902,2.290031,2.27933,2.278589,2.289461,2.293657,2.275269,2.287378,2.29404,2.288892,2.30276,2.293082,2.303347,2.295963,2.303739
1283.490568,2.254379,2.259639,2.254902,2.247806,2.243196,2.24184,2.240825,2.247463,2.283944,2.292231,2.300098,2.289955,2.298937,2.291091,2.296434,2.297203,2.294901,2.307715,2.298359,2.305749,2.295859,2.306731,2.303012,2.307125
1285.751602,2.261116,2.269117,2.265543,2.254298,2.262527,2.260411,2.260763,2.255688,2.298056,2.297481,2.3113,2.303655,2.291961,2.300364,2.308147,2.294807,2.302297,2.305603,2.306775,2.321505,2.3113,2.318479,2.305407,2.31368
1288.010794,2.274905,2.277995,2.287398,2.263113,2.274905,2.267186,2.271298,2.265588,2.293971,2.300838,2.325967,2.306644,2.308792,2.305865,2.307034,2.315104,2.311739,2.313517,2.323124,2.318294,2.316896,2.32272,2.324137,2.322315
1290.268144,2.282377,2.284032,2.286619,2.272576,2.286619,2.27618,2.274555,2.274555,2.305756,2.30692,2.331698,2.322944,2.318932,2.322541,2.319732,2.316543,2.327808,2.322139,2.325167,2.338119,2.336245,2.329033,2.337494,2.340631
1292.523653,2.287988,2.297541,2.296407,2.288173,2.294898,2.282099,2.290031,2.292645,2.31316,2.324902,2.339048,2.335106,2.319489,2.325507,2.326721,2.330791,2.33614,2.330178,2.334281,2.348955,2.3312,2.34789,2.351092,2.343868
1293.650717,2.299263,2.302693,2.30673,2.29718,2.293793,2.288391,2.300784,2.287466,2.324668,2.329321,2.337742,2.337121,2.31887,2.34633,2.339821,2.326685,2.331769,2.344641,2.342329,2.349728,2.336086,2.344852,2.344009,2.34633
1295.903465,2.304825,2.307131,2.318058,2.301389,2.305017,2.301199,2.308289,2.303104,2.336833,2.325431,2.353017,2.347062,2.34918,2.343696,2.344955,2.343067,2.344955,2.349392,2.35003,2.361232,2.349604,2.36584,2.349604,2.358621
1298.154371,2.313182,2.32946,2.324232,2.308531,2.318672,2.315918,2.314939,2.31966,2.346162,2.351024,2.358745,2.352514,2.347636,2.354224,2.349115,2.348269,2.35401,2.352301,2.358312,2.367046,2.365505,2.372596,2.358312,2.366165
1300.403435,2.331627,2.331221,2.338576,2.328194,2.325386,2.325386,2.323392,2.32399,2.350269,2.351328,2.369747,2.361416,2.362286,2.364467,2.368421,2.357956,2.377339,2.368421,2.368421,2.384379,2.368642,2.379145,2.3682,2.382551
1302.650658,2.337493,2.337493,2.354215,2.337903,2.339755,2.32736,2.334632,2.34265,2.356137,2.363476,2.378763,2.370942,2.385352,2.361521,2.372495,2.368733,2.37517,2.383524,2.377187,2.392275,2.37517,2.380118,2.381024,2.385123
1304.89604,2.346115,2.353482,2.357962,2.338051,2.351575,2.345906,2.353269,2.345698,2.374353,2.384492,2.403362,2.380634,2.388845,2.377033,2.382445,2.378155,2.395575,2.395575,2.385862,2.392081,2.388155,2.386091,2.393941,2.393941
1307.139581,2.361973,2.364574,2.364139,2.359603,2.358959,2.353627,2.360248,2.360248,2.37692,2.386873,2.404144,2.398702,2.381868,2.383454,2.393095,2.380062,2.39356,2.39589,2.397997,2.407251,2.393327,2.410863,2.400351,2.40749
1309.38128,2.359363,2.375301,2.369557,2.364756,2.372861,2.358507,2.366496,2.370876,2.389771,2.400713,2.410972,2.40617,2.399771,2.399066,2.409045,2.399536,2.405455,2.400242,2.415583,2.418766,2.405693,2.409766,2.410007,2.410489
1311.621137,2.37244,2.379328,2.391134,2.37465,2.385418,2.37244,2.37244,2.377763,2.399031,2.401381,2.417463,2.412842,2.408988,2.414296,2.413568,2.410429,2.413084,2.411875,2.413568,2.411393,2.404218,2.411875,2.4126,2.416974
1313.859154,2.382216,2.392007,2.396869,2.383343,2.385833,2.388109,2.390168,2.389939,2.419084,2.414938,2.430256,2.40963,2.421296,2.413968,2.417616,2.417128,2.419575,2.420558,2.420312,2.426251,2.420066,2.425255,2.418595,2.423766
1316.095329,2.390259,2.402101,2.406358,2.397418,2.394401,2.390259,2.398117,2.402572,2.415972,2.419143,2.436882,2.420615,2.435101,2.415487,2.430051,2.416946,2.424067,2.419633,2.412101,2.43358,2.432064,2.439953,2.429048,2.432316
1318.329663,2.395089,2.399508,2.408482,2.402087,2.395321,2.399976,2.411355,2.406815,2.427755,2.42502,2.422055,2.426509,2.43836,2.423535,2.431261,2.433783,2.428254,2.425516,2.43252,2.43836,2.432773,2.437084,2.441181,2.434036
1320.562155,2.405854,2.409185,2.413989,2.400201,2.402312,2.396473,2.410861,2.405617,2.427482,2.421297,2.439609,2.444505,2.440892,2.436037,2.425493,2.424007,2.432494,2.441921,2.431235,2.444505,2.433251,2.445803,2.435529,2.447887
1322.792806,2.411316,2.4272,2.426702,2.411797,2.426454,2.414689,2.422743,2.422743,2.427449,2.440082,2.44732,2.44941,2.438291,2.438802,2.446799,2.442395,2.439057,2.435745,2.437016,2.458944,2.428695,2.452301,2.440595,2.445759
1325.021616,2.421965,2.417563,2.422949,2.411763,2.421965,2.413929,2.413929,2.421474,2.435698,2.440545,2.448048,2.443376,2.447006,2.431407,2.443892,2.439008,2.442602,2.450929,2.449617,2.452508,2.446745,2.456215,2.450666,2.455418
1327.248584,2.416379,2.426194,2.447036,2.431689,2.430183,2.43194,2.437508,2.433451,2.444699,2.444699,2.454124,2.444958,2.445736,2.457845,2.453859,2.448863,2.44991,2.443665,2.44834,2.465112,2.448863,2.450172,2.456512,2.453595
1329.473711,2.423858,2.437909,2.433848,2.425589,2.439186,2.434606,2.428325,2.434606,2.454015,2.457202,2.464461,2.446667,2.450851,2.453486,2.438419,2.445627,2.445887,2.453486,2.45243,2.465547,2.451113,2.456403,2.453486,2.466635
1331.696997,2.424725,2.44266,2.438043,2.433979,2.443693,2.428703,2.421275,2.444728,2.449942,2.451518,2.463798,2.467879,2.464069,2.455485,2.460561,2.461637,2.44968,2.454159,2.464882,2.465698,2.455219,2.464611,2.452573,2.461368
1333.918441,2.429599,2.438966,2.459133,2.435144,2.45301,2.426852,2.43489,2.440504,2.440247,2.451954,2.473025,2.443338,2.45301,2.446191,2.45513,2.462902,2.459669,2.458865,2.463173,2.469991,2.456194,2.460475,2.450638,2.463714
1336.138044,2.433795,2.455339,2.449524,2.437866,2.445343,2.443527,2.438378,2.445864,2.452158,2.466117,2.469403,2.455073,2.458813,2.452951,2.458813,2.451366,2.460425,2.454276,2.463397,2.469403,2.460425,2.466389,2.455339,2.458277
1338.355806,2.431413,2.46089,2.455792,2.435722,2.4476,2.44499,2.448911,2.435467,2.452338,2.441362,2.475995,2.468515,2.461701,2.467143,2.464414,2.466323,2.4721,2.467417,2.4582,2.46387,2.467417,2.462242,2.456326,2.47321
1340.571726,2.442238,2.451397,2.462108,2.443794,2.444314,2.436066,2.44172,2.440429,2.463194,2.47309,2.488657,2.470594,2.463194,2.466741,2.461566,2.460755,2.470318,2.468388,2.463194,2.47728,2.46592,2.478123,2.466194,2.468114
1342.785805,2.443317,2.445142,2.451985,2.447761,2.45518,2.44934,2.442019,2.447761,2.460018,2.458938,2.481342,2.462729,2.470411,2.4611,2.46491,2.460559,2.461914,2.461642,2.46491,2.471519,2.478513,2.477668,2.470688,2.483619
1344.998043,2.448467,2.450582,2.445576,2.450582,2.448995,2.442444,2.458065,2.444007,2.455646,2.453506,2.477358,2.462672,2.465405,2.466503,2.468432,2.468708,2.463217,2.458605,2.459686,2.481037,2.468432,2.476513,2.47148,2.482461
1347.208439,2.430046,2.459106,2.459376,2.4556,2.440036,2.437968,2.450261,2.46019,2.466478,2.458024,2.482181,2.459648,2.470907,2.459919,2.470907,2.469241,2.468687,2.476226,2.472021,2.482752,2.465928,2.460462,2.480187,2.483324
1349.416994,2.448492,2.458415,2.465801,2.447962,2.460318,2.450885,2.454365,2.458686,2.459229,2.454902,2.476132,2.472194,2.470796,2.468292,2.478115,2.469403,2.470239,2.473316,2.46996,2.47585,2.476981,2.479821,2.476981,2.478683
1351.623708,2.455081,2.461338,2.458062,2.442569,2.450781,2.450246,2.461338,2.460243,2.466852,2.464638,2.477243,2.464362,2.464914,2.470475,2.469078,2.454541,2.48239,2.47441,2.46713,2.483542,2.474128,2.487016,2.463811,2.473846
1353.82858,2.453707,2.461061,2.458869,2.456688,2.451015,2.449942,2.450478,2.463817,2.473319,2.473885,2.469661,2.478721,2.468822,2.476154,2.467426,2.470503,2.45969,2.481304,2.468542,2.473885,2.473602,2.476439,2.472191,2.467984
1356.031611,2.455623,2.461647,2.460271,2.460546,2.455623,2.455895,2.454808,2.464136,2.472819,2.473669,2.486033,2.474804,2.477942,2.483126,2.466082,2.468876,2.473953,2.472536,2.478802,2.481969,2.471407,2.477942,2.485159,2.479951
1358.2328,2.456061,2.457428,2.465164,2.451986,2.459075,2.454427,2.448753,2.456335,2.474177,2.471058,2.483381,2.47818,2.47933,2.476174,2.477606,2.467961,2.475602,2.487177,2.464051,2.474462,2.48222,2.48309,2.468803,2.478467
1360.432149,2.461057,2.478578,2.479155,2.466352,2.471712,2.45446,2.456374,2.461057,2.466913,2.464952,2.481181,2.486141,2.474274,2.466632,2.467756,2.474559,2.480312,2.484677,2.474845,2.486435,2.480312,2.474845,2.482052,2.482052
1362.629656,2.45919,2.46113,2.466724,2.467005,2.470966,2.456432,2.466161,2.461687,2.47813,2.466161,2.480448,2.477553,2.47125,2.475538,2.478419,2.4764,2.483656,2.476688,2.476976,2.487477,2.476112,2.47813,2.47296,2.481903
1364.825321,2.469761,2.473759,2.468343,2.463273,2.4658,2.470046,2.464114,2.472327,2.477504,2.478373,2.48333,2.481866,2.478373,2.474046,2.469193,2.474908,2.476926,2.480698,2.487455,2.485387,2.464114,2.474908,2.484504,2.481574
1365.922463,2.457715,2.474361,2.473786,2.463567,2.471494,2.457162,2.472639,2.470638,2.486316,2.483664,2.485135,2.473499,2.472352,2.486021,2.472066,2.469499,2.481027,2.490177,2.492569,2.488688,2.47178,2.485725,2.473786,2.48543
1368.115367,2.46416,2.478767,2.478767,2.459677,2.463035,2.472405,2.471832,2.472119,2.483158,2.480226,2.479058,2.484042,2.477603,2.488189,2.483452,2.475285,2.483747,2.47935,2.472693,2.477894,2.487594,2.474419,2.476153,2.485223
1370.306429,2.464485,2.468177,2.477399,2.468177,2.467892,2.469891,2.468462,2.4719,2.475075,2.478274,2.478274,2.480615,2.477399,2.475945,2.478858,2.480908,2.475945,2.485929,2.485335,2.48179,2.484446,2.477399,2.48415,2.485039
1372.49565,2.476388,2.486718,2.492128,2.462044,2.48226,2.455601,2.474351,2.467153,2.480196,2.469443,2.487316,2.492128,2.482852,2.488214,2.488214,2.485227,2.488514,2.485823,2.488214,2.48167,2.474932,2.498833,2.48108,2.4973
1374.683029,2.462487,2.486394,2.493647,2.481328,2.483109,2.487594,2.473402,2.471661,2.486694,2.483407,2.49886,2.489401,2.485197,2.4891,2.484898,2.486694,2.482812,2.482515,2.482218,2.495174,2.488798,2.49061,2.488497,2.496092
1376.868567,2.469017,2.473964,2.482833,2.468439,2.479857,2.483431,2.482833,2.47455,2.475723,2.47455,2.49958,2.488849,2.483431,2.486131,2.481045,2.492804,2.489152,2.48373,2.48553,2.502071,2.48373,2.473087,2.495871,2.492498
1379.052264,2.483873,2.472291,2.492998,2.481173,2.480277,2.477895,2.482671,2.473759,2.483873,2.491463,2.498254,2.482971,2.492076,2.490546,2.493921,2.478489,2.489325,2.493921,2.482971,2.499813,2.483572,2.491157,2.492076,2.482071
1381.234119,2.471963,2.488772,2.492461,2.494317,2.493697,2.480286,2.476699,2.482392,2.485419,2.484812,2.502768,2.494627,2.482694,2.493388,2.484812,2.485419,2.486331,2.493388,2.492461,2.499305,2.498991,2.506578,2.483903,2.482392
1383.414134,2.490001,2.495281,2.488153,2.482353,2.484176,2.47424,2.478127,2.473645,2.481444,2.489385,2.491857,2.494033,2.499993,2.5038,2.490928,2.492167,2.493721,2.491238,2.489076,2.489076,2.481746,2.501575,2.485701,2.495281
1385.592306,2.483267,2.491916,2.487879,2.478703,2.477494,2.475687,2.490048,2.491292,2.481436,2.495361,2.497252,2.497885,2.486644,2.489737,2.502655,2.497885,2.489427,2.490981,2.478703,2.498518,2.491916,2.492228,2.503616,2.486644
1387.768638,2.482694,2.499629,2.499629,2.497715,2.482694,2.473865,2.48331,2.484544,2.492965,2.492021,2.493595,2.494226,2.482387,2.50059,2.49265,2.481466,2.476586,2.481159,2.486401,2.489202,2.48208,2.502517,2.497397,2.50059
1389.943128,2.48246,2.479373,2.4887,2.501779,2.481531,2.469641,2.473872,2.492804,2.495669,2.489014,2.498231,2.489014,2.507976,2.494712,2.483701,2.479989,2.496308,2.496628,2.499518,2.497268,2.489014,2.492804,2.481841,2.493122
1392.115776,2.498805,2.480078,2.481322,2.484449,2.473297,2.490134,2.473297,2.474829,2.485391,2.476058,2.500429,2.495573,2.49848,2.486967,2.485706,2.478837,2.489499,2.487598,2.497509,2.490771,2.493646,2.489499,2.483196,2.497186
1394.286584,2.492529,2.49382,2.495114,2.480769,2.484865,2.471156,2.485816,2.485816,2.492207,2.481711,2.503954,2.481083,2.505611,2.483601,2.487405,2.48868,2.479517,2.488361,2.49028,2.497389,2.482655,2.487405,2.477334,2.496738
1396.45555,2.488416,2.49784,2.490349,2.464952,2.477308,2.47512,2.486172,2.484576,2.490995,2.480769,2.49359,2.490026,2.489704,2.476369,2.492291,2.489059,2.491643,2.473875,2.47512,2.503461,2.471086,2.490349,2.476995,2.490349
1398.622674,2.477809,2.491934,2.491934,2.466893,2.481935,2.475918,2.486422,2.470294,2.480661,2.469364,2.489331,2.490631,2.467201,2.476233,2.475604,2.483852,2.486744,2.500501,2.476233,2.495538,2.484173,2.495209,2.493896,2.484173
1400.787958,2.486646,2.482132,2.480212,2.488921,2.486646,2.463609,2.4783,2.477982,2.479893,2.476713,2.487944,2.492191,2.477665,2.471049,2.468555,2.482774,2.472615,2.483739,2.480212,2.487944,2.489899,2.483739,2.489247,2.48827
1402.9514,2.483047,2.479509,2.489881,2.491524,2.484016,2.473466,2.485638,2.475683,2.489225,2.489553,2.487591,2.481114,2.486288,2.482401,2.48015,2.482079,2.488571,2.482724,2.488571,2.494166,2.485313,2.488244,2.493504,2.475683
1405.113,2.473133,2.484689,2.487954,2.48534,2.478552,2.489925,2.469348,2.484364,2.484689,2.473133,2.500929,2.479836,2.490914,2.490914,2.482741,2.479836,2.485014,2.484689,2.475674,2.49456,2.476631,2.489267,2.485992,2.4979
1407.27276,2.486361,2.496962,2.495957,2.474736,2.478898,2.482127,2.485706,2.48538,2.485053,2.463103,2.481479,2.481479,2.4831,2.486033,2.480832,2.490636,2.482127,2.487016,2.476972,2.49999,2.472511,2.501343,2.472511,2.478576
1409.430678,2.474107,2.487053,2.49501,2.465895,2.487053,2.466521,2.500735,2.470297,2.485413,2.487053,2.496686,2.472834,2.476986,2.489028,2.476986,2.48771,2.479239,2.482803,2.478272,2.507225,2.492009,2.490682,2.483128,2.491013
1411.586754,2.481857,2.49172,2.479587,2.489398,2.477008,2.470309,2.482507,2.469676,2.478618,2.477973,2.488077,2.474124,2.489398,2.482182,2.479587,2.477329,2.482182,2.476686,2.484792,2.487418,2.481532,2.489068,2.484792,2.482833
1413.74099,2.487523,2.492498,2.492164,2.473889,2.470071,2.480652,2.472931,2.473889,2.47549,2.484565,2.484238,2.484893,2.478709,2.496182,2.483257,2.478063,2.475169,2.472613,2.47549,2.485549,2.49551,2.498543,2.479033,2.488844
1415.893383,2.482445,2.487037,2.485392,2.468953,2.486049,2.474684,2.483098,2.486708,2.492012,2.482772,2.490348,2.485063,2.485392,2.48902,2.487367,2.486708,2.48572,2.481467,2.495697,2.498735,2.479843,2.49068,2.486708,2.494353
1418.043936,2.487551,2.489538,2.504399,2.477747,2.490535,2.47006,2.490535,2.479041,2.469742,2.48623,2.485572,2.495556,2.488212,2.490868,2.483602,2.484258,2.478717,2.491201,2.476778,2.473566,2.463444,2.490535,2.482294,2.477747
1420.192647,2.48064,2.49487,2.489853,2.481618,2.478691,2.473857,2.468759,2.494198,2.48621,2.48064,2.48654,2.48654,2.483253,2.47999,2.496555,2.484565,2.476429,2.492187,2.487531,2.499605,2.47934,2.484565,2.490186,2.48687
1422.339517,2.481393,2.478142,2.48009,2.486645,2.486645,2.469168,2.469803,2.492296,2.497344,2.472671,2.487968,2.485656,2.485326,2.482373,2.482046,2.485326,2.48434,2.482373,2.487637,2.483355,2.475881,2.487968,2.477819,2.48009
1424.484546,2.486949,2.485629,2.494282,2.484641,2.483656,2.488605,2.4906,2.480388,2.486949,2.487942,2.503454,2.487942,2.475854,2.489934,2.504485,2.483984,2.48761,2.491935,2.496303,2.500375,2.484641,2.49361,2.472005,2.487279
1426.627733,2.479927,2.486813,2.470594,2.484177,2.470594,2.473149,2.474753,2.46679,2.491465,2.497859,2.491465,2.481884,2.485493,2.483849,2.484835,2.491799,2.487806,2.493139,2.476686,2.476041,2.480253,2.49752,2.483521,2.489798
1428.769079,2.484303,2.482335,2.48595,2.477777,2.48595,2.478101,2.477777,2.481028,2.490595,2.473267,2.495965,2.489263,2.489595,2.479399,2.490261,2.491597,2.482662,2.495627,2.475838,2.492601,2.475194,2.48529,2.474551,2.48529
1430.908583,2.475945,2.485734,2.504275,2.478534,2.49914,2.477238,2.480486,2.476914,2.47821,2.486065,2.501529,2.486395,2.478859,2.48016,2.486726,2.462601,2.489047,2.494064,2.493728,2.485734,2.487388,2.484087,2.489713,2.49272
1433.046246,2.494508,2.496195,2.510639,2.486827,2.486496,2.484516,2.483858,2.483529,2.483201,2.481236,2.516624,2.494171,2.495857,2.481562,2.489816,2.493162,2.482217,2.476361,2.484845,2.504045,2.49857,2.487489,2.477332,2.49823
1435.182068,2.479945,2.497593,2.495558,2.489179,2.488513,2.483549,2.479945,2.489846,2.493197,2.49387,2.489179,2.492861,2.491854,2.478968,2.491854,2.483879,2.482892,2.489179,2.49522,2.496913,2.483879,2.48818,2.502033,2.50169
1436.249288,2.482246,2.496256,2.495918,2.471866,2.492207,2.470586,2.48389,2.486203,2.497615,2.482574,2.502402,2.507939,2.506201,2.494227,2.496935,2.479301,2.505162,2.49966,2.476053,2.477349,2.481918,2.488861,2.48389,2.49966
1438.382348,2.49723,2.498251,2.499616,2.487818,2.484836,2.487154,2.491491,2.471502,2.484505,2.498933,2.494858,2.491491,2.487154,2.488484,2.490821,2.496212,2.491156,2.506851,2.476332,2.49757,2.483846,2.504426,2.487154,2.489484
1440.513567,2.495314,2.492278,2.49667,2.486269,2.510119,2.483955,2.506631,2.486601,2.49803,2.504897,2.494976,2.488596,2.491942,2.4943,2.501107,2.492951,2.490601,2.50145,2.500079,2.494637,2.511874,2.49701,2.491606,2.50386
1442.642944,2.494211,2.501367,2.512503,2.491516,2.487171,2.480571,2.492861,2.499995,2.485843,2.494887,2.495226,2.496923,2.478284,2.484188,2.497263,2.492861,2.493198,2.495904,2.49931,2.504817,2.486838,2.502399,2.491852,2.491516
1444.77048,2.49739,2.49944,2.505302,2.493656,2.488616,2.485619,2.491969,2.491969,2.491297,2.491633,2.497049,2.484625,2.491969,2.507739,2.506693,2.504608,2.482644,2.491297,2.48895,2.500469,2.488282,2.510189,2.498414,2.495349
1446.896174,2.503633,2.515571,2.506761,2.488991,2.493704,2.48632,2.498127,2.486653,2.49574,2.494721,2.501905,2.501905,2.498469,2.494721,2.488991,2.486986,2.491341,2.491341,2.49574,2.486986,2.488991,2.496421,2.494721,2.4954
1449.020027,2.497082,2.511322,2.498108,2.481642,2.493339,2.479996,2.492662,2.493678,2.478684,2.496058,2.511676,2.495377,2.504665,2.490638,2.49674,2.513091,2.501202,2.486617,2.498108,2.497082,2.486617,2.505013,2.494697,2.500857
1451.142039,2.504232,2.515513,2.507025,2.506675,2.487172,2.492559,2.48617,2.490531,2.505626,2.501457,2.511602,2.500766,2.494937,2.501803,2.501112,2.495277,2.501112,2.496301,2.486504,2.51838,2.493916,2.499044,2.512665,2.503537
1453.262209,2.497156,2.506869,2.513586,2.521133,2.489,2.491701,2.500254,2.494079,2.503375,2.512518,2.49204,2.506518,2.501638,2.50442,2.498186,2.499909,2.487991,2.505468,2.497842,2.50442,2.505118,2.502679,2.498186,2.498874
1455.380538,2.49331,2.511764,2.513546,2.495018,2.489239,2.497765,2.493651,2.504009,2.509635,2.480877,2.500529,2.513903,2.511053,2.494334,2.500875,2.509635,2.490253,2.507165,2.500875,2.496046,2.49949,2.499144,2.491949,2.503659
1457.497026,2.502341,2.506199,2.504091,2.497136,2.491992,2.497136,2.487921,2.501644,2.504441,2.502341,2.509735,2.486909,2.512228,2.499558,2.506199,2.495415,2.504441,2.501993,2.512228,2.514376,2.50339,2.504792,2.508317,2.500252
1459.611672,2.507175,2.50753,2.515039,2.503296,2.512522,2.489135,2.498756,2.490156,2.493232,2.504703,2.50753,2.505408,2.497368,2.484403,2.505408,2.514319,2.502595,2.50753,2.506821,2.50895,2.508239,2.50895,2.490497,2.501544
1461.724477,2.510622,2.505989,2.510622,2.492035,2.498259,2.487934,2.500003,2.495135,2.513499,2.502458,2.518213,2.512058,2.49791,2.507765,2.505989,2.505635,2.499654,2.512058,2.510622,2.510622,2.50422,2.522243,2.497215,2.512778
1463.835441,2.503731,2.521799,2.512671,2.500206,2.498804,2.496361,2.494278,2.50979,2.513394,2.503023,2.515207,2.519958,2.510508,2.503023,2.504794,2.514119,2.511949,2.501965,2.503731,2.511949,2.502317,2.515207,2.502317,2.506572
1465.944563,2.490301,2.516565,2.507155,2.500405,2.502525,2.494801,2.498997,2.497944,2.507513,2.505012,2.508949,2.503234,2.503944,2.505012,2.483128,2.509308,2.503944,2.498295,2.523573,2.50111,2.510389,2.522459,2.513284,2.528058
1468.051844,2.507865,2.501431,2.504279,2.51586,2.492998,2.506068,2.498954,2.5133,2.507865,2.508946,2.522141,2.511481,2.490568,2.50571,2.516962,2.491261,2.505351,2.509669,2.497194,2.515494,2.502141,2.512572,2.51733,2.509669
1470.157284,2.511123,2.52369,2.504973,2.505332,2.504614,2.499617,2.491881,2.503896,2.507494,2.494678,2.513314,2.498201,2.503538,2.505692,2.515517,2.490836,2.507494,2.508942,2.512948,2.515149,2.49223,2.508942,2.524441,2.524441
1472.260882,2.512519,2.524062,2.516951,2.492767,2.501276,2.50307,2.498777,2.500918,2.50379,2.498421,2.520305,2.520305,2.51032,2.508133,2.525195,2.512887,2.508133,2.50959,2.505232,2.499133,2.499133,2.506318,2.510686,2.505956
1474.362639,2.512131,2.505903,2.517328,2.497974,2.51435,2.518449,2.506267,2.504813,2.506267,2.505903,2.524861,2.520701,2.520325,2.50736,2.508823,2.502281,2.507725,2.511762,2.5125,2.519949,2.5125,2.512131,2.511025,2.521455
1476.462554,2.509197,2.523806,2.520391,2.493284,2.505894,2.489044,2.502616,2.502979,2.502254,2.505529,2.527248,2.509197,2.50407,2.508829,2.518129,2.513268,2.520391,2.512154,2.514012,2.513268,2.507359,2.51364,2.501168,2.517377
1478.560629,2.501214,2.509291,2.503037,2.501214,2.499399,2.497231,2.494358,2.508181,2.503402,2.509662,2.523989,2.514135,2.517521,2.510033,2.507073,2.503768,2.511893,2.508181,2.514885,2.499762,2.511148,2.51152,2.51451,2.508181
1480.656861,2.496471,2.522573,2.514199,2.504507,2.517226,2.498284,2.496833,2.52721,2.517226,2.515332,2.505245,2.513446,2.510072,2.512694,2.508209,2.506724,2.512694,2.512319,2.512319,2.523728,2.501567,2.512319,2.522189,2.513446
1482.751253,2.506685,2.510053,2.521473,2.511558,2.502234,2.47994,2.503713,2.51725,2.511936,2.512691,2.522631,2.514585,2.504083,2.510805,2.531618,2.518398,2.507431,2.516869,2.521473,2.511936,2.504825,2.516869,2.516106,2.504083
1484.843803,2.501391,2.521506,2.516102,2.499541,2.502505,2.516486,2.510006,2.52073,2.50065,2.507742,2.508496,2.516486,2.513806,2.504742,2.49991,2.515335,2.504742,2.50925,2.514188,2.514952,2.499541,2.524625,2.506615,2.51457
1486.934512,2.523143,2.518845,2.532671,2.51536,2.514589,2.4976,2.496491,2.5062,2.51152,2.51536,2.51152,2.514204,2.5062,2.505823,2.518456,2.512668,2.520403,2.513435,2.518845,2.51768,2.51382,2.509993,2.520793,2.511902
1489.02338,2.504297,2.525638,2.524447,2.513868,2.517756,2.497535,2.505055,2.505435,2.496418,2.503541,2.516975,2.523654,2.514643,2.522073,2.52405,2.529633,2.493453,2.502031,2.510014,2.517756,2.510398,2.508865,2.511552,2.519713
1491.110406,2.529856,2.532696,2.512419,2.491192,2.5051,2.515146,2.516321,2.509708,2.509708,2.500162,2.528242,2.5051,2.507782,2.500162,2.526633,2.52224,2.507398,2.516321,2.512419,2.510481,2.522638,2.521843,2.521843,2.523832
1493.195591,2.505203,2.528107,2.526488,2.513749,2.501755,2.495691,2.513357,2.516899,2.516504,2.512574,2.523268,2.508291,2.505973,2.509455,2.518086,2.518086,2.503284,2.506358,2.524473,2.517294,2.511792,2.522067,2.511792,2.508291
1495.278934,2.509849,2.525817,2.51776,2.522173,2.507893,2.503622,2.508675,2.505947,2.512996,2.504783,2.51976,2.535272,2.516564,2.524599,2.506724,2.508675,2.52298,2.520965,2.531136,2.514578,2.52177,2.542818,2.516166,2.51142
1497.360436,2.512995,2.530459,2.521842,2.510218,2.513394,2.520625,2.511803,2.506672,2.526334,2.516192,2.522249,2.513394,2.521842,2.524696,2.51539,2.518201,2.509822,2.511406,2.514591,2.533787,2.52022,2.525924,2.521031,2.527568
1499.440097,2.530157,2.53309,2.531411,2.510162,2.509763,2.521475,2.501867,2.523115,2.514571,2.514974,2.523937,2.525587,2.512561,2.522294,2.524762,2.528489,2.51984,2.510561,2.514571,2.51984,2.524762,2.534775,2.516186,2.527243
1501.517916,2.50356,2.516429,2.5318,2.502768,2.527173,2.505944,2.500795,2.508341,2.517246,2.519706,2.536476,2.517655,2.513175,2.52927,2.532223,2.501977,2.505944,2.521767,2.520942,2.518474,2.515613,2.520942,2.514799,2.524254
