Wavelength (nm),Absorbance (AU) 2024-10-08 14:42:39,Absorbance (AU) 2024-10-08 14:57:49,Absorbance (AU) 2024-10-08 15:12:59,Absorbance (AU) 2024-10-08 15:28:08,Absorbance (AU) 2024-10-08 15:43:18,Absorbance (AU) 2024-10-08 15:58:27,Absorbance (AU) 2024-10-08 16:13:37,Absorbance (AU) 2024-10-08 16:28:46,Absorbance (AU) 2024-10-08 16:43:56,Absorbance (AU) 2024-10-08 16:59:05,Absorbance (AU) 2024-10-08 17:14:14,Absorbance (AU) 2024-10-08 17:29:24,Absorbance (AU) 2024-10-08 17:44:33,Absorbance (AU) 2024-10-08 17:59:43,Absorbance (AU) 2024-10-08 18:14:52,Absorbance (AU) 2024-10-08 18:30:02,Absorbance (AU) 2024-10-08 18:45:11,Absorbance (AU) 2024-10-08 19:00:21,Absorbance (AU) 2024-10-08 19:15:30,Absorbance (AU) 2024-10-08 19:30:40,Absorbance (AU) 2024-10-08 19:45:49,Absorbance (AU) 2024-10-08 20:00:59,Absorbance (AU) 2024-10-08 20:16:08,Absorbance (AU) 2024-10-08 20:31:17
901.841506,1.659209,1.648343,1.650318,1.632854,1.628857,1.625311,1.627185,1.613429,1.67336,1.684641,1.702627,1.682977,1.696957,1.692327,1.691601,1.69257,1.707619,1.712669,1.70938,1.729764,1.719581,1.720874,1.717265,1.715984
904.394392,1.651105,1.644206,1.640695,1.620201,1.619417,1.620594,1.628123,1.614354,1.662636,1.672705,1.698716,1.685516,1.683014,1.685744,1.689872,1.687345,1.701074,1.706306,1.705828,1.712087,1.708225,1.725133,1.708465,1.712087
905.670145,1.65044,1.64228,1.643089,1.61964,1.62137,1.61525,1.617153,1.60142,1.67132,1.669165,1.694166,1.687163,1.6761,1.687835,1.693938,1.684036,1.697136,1.700358,1.701283,1.711828,1.703372,1.7154,1.71564,1.718762
908.220269,1.646425,1.6345,1.63812,1.615203,1.622708,1.609971,1.613573,1.604271,1.658888,1.663935,1.685368,1.6711,1.674207,1.675665,1.686436,1.683028,1.686222,1.690086,1.695074,1.700783,1.697261,1.708588,1.699459,1.705673
910.768552,1.630927,1.628956,1.63003,1.61127,1.611614,1.605983,1.608534,1.60143,1.655676,1.661994,1.679305,1.671154,1.667428,1.669581,1.673326,1.668993,1.693793,1.695456,1.685165,1.708138,1.702385,1.702597,1.693171,1.703233
913.314994,1.629382,1.62548,1.63886,1.60583,1.603415,1.60583,1.607933,1.599737,1.652305,1.648726,1.682435,1.65937,1.67461,1.670468,1.677266,1.672534,1.684172,1.684365,1.683979,1.707406,1.68205,1.709451,1.690797,1.697923
915.859594,1.638769,1.626274,1.628519,1.607185,1.609949,1.610103,1.618663,1.598395,1.660197,1.66089,1.687869,1.672298,1.676588,1.670878,1.67929,1.67408,1.686948,1.690086,1.686213,1.701728,1.689346,1.704976,1.703063,1.700778
918.402353,1.643403,1.637163,1.642461,1.618963,1.616446,1.620302,1.625548,1.608254,1.661531,1.667635,1.691541,1.673153,1.670971,1.684058,1.685094,1.683023,1.687348,1.693829,1.70005,1.713873,1.696307,1.71111,1.703826,1.713873
920.943271,1.655027,1.651543,1.653357,1.629916,1.635841,1.631498,1.631066,1.618863,1.670663,1.67351,1.702884,1.686067,1.694144,1.687703,1.703054,1.693812,1.703054,1.705609,1.714063,1.723751,1.712151,1.723217,1.714935,1.721974
923.482347,1.679241,1.671525,1.672703,1.650987,1.649587,1.644444,1.650987,1.638679,1.693391,1.699779,1.719363,1.710907,1.714952,1.71123,1.71756,1.714952,1.73304,1.736784,1.736271,1.739011,1.725647,1.744544,1.736955,1.742807
926.019582,1.700153,1.693302,1.693013,1.67559,1.681743,1.671858,1.672271,1.666522,1.719071,1.72246,1.744508,1.733424,1.736927,1.734217,1.732473,1.744508,1.754716,1.752721,1.755216,1.763806,1.758061,1.769284,1.761431,1.767222
928.554976,1.736939,1.719126,1.720716,1.700355,1.700493,1.702848,1.697189,1.686221,1.73935,1.748667,1.769864,1.760562,1.751922,1.767762,1.766634,1.767278,1.773609,1.778873,1.78253,1.797472,1.7837,1.796264,1.793003,1.797299
931.088528,1.755864,1.738557,1.750995,1.723425,1.72869,1.724115,1.729527,1.722051,1.767747,1.770808,1.802166,1.784061,1.783745,1.797242,1.796427,1.783903,1.800519,1.806146,1.807648,1.818995,1.807982,1.815917,1.820198,1.826437
933.620239,1.781822,1.770449,1.772495,1.752598,1.752039,1.752738,1.759366,1.743734,1.79876,1.800006,1.820946,1.812834,1.811711,1.814929,1.818334,1.81155,1.833068,1.830215,1.832227,1.847797,1.833237,1.846059,1.842258,1.851471
936.150109,1.806917,1.798647,1.804344,1.781992,1.78314,1.781992,1.77885,1.777572,1.825526,1.828228,1.857747,1.83937,1.842984,1.848128,1.848796,1.849465,1.852826,1.860314,1.853164,1.876579,1.862724,1.878186,1.87356,1.874269
938.678137,1.830123,1.819316,1.832906,1.805119,1.807453,1.810536,1.815872,1.794626,1.852902,1.860108,1.888599,1.869118,1.870469,1.867939,1.873523,1.873523,1.885787,1.893386,1.882124,1.903487,1.893208,1.907152,1.891962,1.902757
941.204324,1.861606,1.851754,1.853486,1.837382,1.839973,1.835259,1.840126,1.824059,1.879657,1.883866,1.910555,1.894137,1.893272,1.893791,1.905191,1.903949,1.910015,1.908222,1.91635,1.921301,1.91891,1.922594,1.922409,1.930244
943.72867,1.883415,1.874928,1.877684,1.859058,1.857503,1.857503,1.863916,1.848133,1.906951,1.905388,1.924708,1.915916,1.917518,1.917518,1.928715,1.924165,1.932389,1.934238,1.937959,1.947214,1.936653,1.949127,1.941524,1.949127
946.251174,1.906087,1.891562,1.905747,1.876554,1.875287,1.874181,1.880538,1.873393,1.917439,1.918836,1.944586,1.934319,1.929455,1.939056,1.937776,1.945143,1.955481,1.949436,1.958153,1.966462,1.957579,1.964127,1.958536,1.961998
948.771837,1.915173,1.902943,1.920817,1.893305,1.894599,1.884508,1.89282,1.8853,1.930917,1.945246,1.95931,1.955192,1.950006,1.950927,1.960629,1.954447,1.963278,1.963088,1.97404,1.975209,1.966899,1.982687,1.97404,1.97736
951.290658,1.920909,1.913045,1.922771,1.896611,1.905157,1.899816,1.904506,1.888074,1.944503,1.948263,1.97439,1.964384,1.958452,1.963824,1.962522,1.958084,1.979384,1.977456,1.977649,1.990934,1.976112,1.989746,1.989746,1.986984
953.807639,1.92823,1.929749,1.930426,1.901594,1.907177,1.905095,1.916262,1.895612,1.951776,1.954095,1.974981,1.965697,1.966985,1.969016,1.971616,1.971243,1.977616,1.984084,1.992014,1.991429,1.981219,1.99633,1.991429,1.995739
956.322778,1.935122,1.919906,1.934114,1.912972,1.904419,1.910739,1.915057,1.906148,1.958463,1.963465,1.984071,1.962747,1.962568,1.9698,1.9698,1.966712,1.979386,1.987286,1.987666,1.987856,1.987856,1.999607,1.993981,2.001564
958.836075,1.933801,1.926764,1.936948,1.916178,1.910355,1.908172,1.918561,1.913651,1.956669,1.960688,1.986918,1.967588,1.967054,1.976053,1.969913,1.972792,1.985243,1.985243,1.990851,2.007148,1.989536,1.997488,1.996152,1.998636
961.347531,1.938985,1.934251,1.937838,1.915193,1.91753,1.911634,1.91675,1.905969,1.954694,1.958626,1.984451,1.972054,1.973296,1.973474,1.973296,1.981002,1.98518,1.983177,1.989768,1.999658,1.989031,1.997587,1.994219,2.00364
963.857146,1.932684,1.928882,1.932684,1.909756,1.918135,1.911722,1.911722,1.91036,1.962306,1.959928,1.982169,1.966241,1.972821,1.971776,1.97492,1.976149,1.98719,1.988816,1.998333,1.998333,1.999631,2.005987,1.99063,1.996118
966.36492,1.935029,1.926771,1.934243,1.913098,1.911605,1.91101,1.911904,1.905391,1.95203,1.957959,1.980245,1.971261,1.969555,1.975039,1.979721,1.976767,1.987106,1.98622,1.999701,2.000797,1.986397,1.995522,1.986574,1.997515
968.870852,1.926352,1.925443,1.93431,1.91424,1.9113,1.904182,1.913209,1.906928,1.950035,1.957954,1.980892,1.965356,1.966518,1.972042,1.975425,1.971874,1.979861,1.984344,1.986777,1.990628,1.991156,1.999869,1.995935,2.002571
971.374943,1.934989,1.924012,1.92789,1.905981,1.916651,1.9097,1.906694,1.902717,1.953499,1.959741,1.983257,1.962652,1.972334,1.962652,1.973831,1.970182,1.979867,1.985818,1.985304,1.991677,1.987189,2.001859,1.992024,2.000264
973.877192,1.923942,1.921173,1.928054,1.906324,1.908153,1.904643,1.909282,1.898534,1.945672,1.949376,1.969034,1.966608,1.960364,1.969196,1.97017,1.971473,1.982874,1.978543,1.982205,1.996134,1.983209,1.996306,1.986067,1.995616
976.3776,1.931912,1.918481,1.918624,1.902702,1.900241,1.89617,1.900514,1.897252,1.943054,1.94744,1.973275,1.961812,1.959775,1.958993,1.961341,1.964808,1.975378,1.973275,1.977979,1.987543,1.979941,1.983725,1.982405,1.988043
978.876167,1.928117,1.914848,1.92228,1.897142,1.902514,1.900088,1.900626,1.894879,1.93959,1.942396,1.965827,1.952132,1.954867,1.954106,1.963333,1.953953,1.969596,1.97611,1.978518,1.981587,1.97531,1.988614,1.985005,1.989109
981.372892,1.916853,1.909611,1.913559,1.891433,1.888067,1.889617,1.898111,1.884088,1.930286,1.938897,1.95877,1.949165,1.948423,1.950801,1.952742,1.95665,1.963193,1.96519,1.970614,1.989253,1.966887,1.977213,1.976264,1.983272
983.867776,1.91168,1.901449,1.908465,1.885589,1.88673,1.887874,1.891196,1.877684,1.92645,1.927146,1.956542,1.945066,1.946958,1.952093,1.948565,1.950619,1.961943,1.963152,1.960737,1.969096,1.966343,1.974346,1.96925,1.983132
986.360819,1.907202,1.901066,1.89861,1.876985,1.885656,1.877967,1.882291,1.869085,1.923274,1.922865,1.950149,1.937701,1.941669,1.942524,1.952186,1.941242,1.957911,1.95394,1.959688,1.965965,1.956289,1.966116,1.964312,1.975862
987.60665,1.909456,1.894601,1.89651,1.880115,1.876933,1.874623,1.882331,1.867884,1.923477,1.922122,1.945896,1.933222,1.932667,1.93895,1.944612,1.945182,1.952956,1.957335,1.950205,1.959689,1.952811,1.970292,1.957482,1.970443
990.096931,1.902485,1.889129,1.893243,1.870547,1.87569,1.875569,1.876894,1.862304,1.914025,1.911928,1.942536,1.929406,1.926827,1.928047,1.941275,1.933785,1.94705,1.945352,1.945634,1.960733,1.954919,1.959126,1.953621,1.963228
992.58537,1.88756,1.87895,1.885239,1.860382,1.869802,1.864079,1.868159,1.857058,1.908639,1.913682,1.934053,1.922485,1.921425,1.928769,1.929983,1.9312,1.940923,1.945657,1.943422,1.950726,1.942588,1.959021,1.953997,1.957579
995.071968,1.887293,1.874128,1.876611,1.853298,1.858498,1.858498,1.858953,1.849495,1.902629,1.904648,1.927497,1.920357,1.914496,1.919048,1.9259,1.91931,1.932862,1.932727,1.934349,1.950489,1.935434,1.941586,1.942689,1.950208
997.556725,1.879027,1.866657,1.872915,1.855863,1.852955,1.846428,1.851175,1.84108,1.892002,1.894326,1.919828,1.91184,1.910947,1.910184,1.915944,1.916977,1.925851,1.925192,1.928363,1.939375,1.932761,1.938968,1.93992,1.94375
1000.03964,1.870385,1.859343,1.862388,1.841938,1.844972,1.842911,1.842587,1.83604,1.891165,1.897009,1.912481,1.897745,1.903928,1.904053,1.911086,1.906301,1.919653,1.922634,1.92485,1.931434,1.921725,1.931302,1.930771,1.935567
1002.520714,1.865425,1.852913,1.857229,1.834164,1.838829,1.835114,1.83522,1.825187,1.873431,1.881118,1.905527,1.893756,1.897278,1.89801,1.902431,1.899356,1.912039,1.910151,1.913176,1.922899,1.914697,1.932976,1.921478,1.928105
1004.999947,1.854284,1.843536,1.847305,1.82465,1.827948,1.828052,1.834725,1.819141,1.874189,1.875803,1.899785,1.887391,1.887272,1.889174,1.89493,1.893724,1.905807,1.903462,1.907295,1.917727,1.907544,1.923361,1.921176,1.918364
1007.477338,1.850845,1.840434,1.846414,1.819522,1.821752,1.820433,1.824197,1.813201,1.8604,1.867227,1.891109,1.877616,1.880746,1.881562,1.887312,1.883431,1.897956,1.897352,1.905775,1.909241,1.90002,1.913235,1.908124,1.914869
1009.952888,1.844262,1.825268,1.837488,1.812093,1.816373,1.810807,1.818278,1.80531,1.85561,1.861453,1.880627,1.869632,1.870311,1.874866,1.878083,1.878891,1.891314,1.890957,1.892027,1.900444,1.893459,1.904837,1.906927,1.906435
1012.426597,1.832296,1.82206,1.826943,1.802187,1.804416,1.800259,1.808613,1.796714,1.849408,1.850055,1.877673,1.866101,1.861978,1.868571,1.870829,1.868683,1.878479,1.878249,1.888265,1.890865,1.885096,1.902031,1.897674,1.897313
1014.898464,1.82834,1.818205,1.818104,1.794898,1.798138,1.795943,1.803334,1.789425,1.842092,1.850536,1.867595,1.855311,1.859477,1.857828,1.862573,1.863128,1.871202,1.875753,1.879775,1.887227,1.884534,1.891475,1.890173,1.892782
1017.36849,1.820021,1.807432,1.814425,1.789629,1.79672,1.789254,1.793396,1.781085,1.83548,1.837046,1.863238,1.85151,1.850861,1.854004,1.85706,1.851401,1.865689,1.868941,1.868716,1.877582,1.872558,1.883362,1.879769,1.885929
1019.836674,1.815294,1.80158,1.80526,1.782619,1.785583,1.784933,1.787165,1.773847,1.828941,1.831516,1.860123,1.843986,1.845051,1.842712,1.851493,1.844625,1.858691,1.859131,1.865787,1.874367,1.862336,1.876539,1.877687,1.875852
1022.303017,1.803563,1.796736,1.797499,1.778702,1.777696,1.773606,1.778427,1.767231,1.818952,1.820864,1.84684,1.837204,1.831275,1.837937,1.841307,1.840357,1.851036,1.851144,1.856914,1.868126,1.861319,1.871739,1.864653,1.873899
1024.767519,1.798576,1.788903,1.792765,1.771081,1.772433,1.76518,1.774515,1.760939,1.810337,1.81549,1.837893,1.83226,1.828443,1.830193,1.837158,1.836949,1.847123,1.844984,1.85046,1.861957,1.853605,1.865299,1.858972,1.863402
1027.23018,1.792746,1.782071,1.78616,1.763954,1.763422,1.764753,1.765999,1.754216,1.802526,1.810945,1.835658,1.824297,1.821351,1.827366,1.829941,1.827264,1.839759,1.84294,1.843472,1.848078,1.847971,1.85777,1.854479,1.85821
1029.690999,1.786885,1.776328,1.784082,1.757529,1.760959,1.75517,1.76335,1.745774,1.79886,1.801663,1.825075,1.814958,1.818875,1.815458,1.828672,1.82487,1.831467,1.836482,1.836798,1.845293,1.83785,1.850905,1.846366,1.851557
1032.149977,1.78173,1.771634,1.771634,1.75186,1.755778,1.753858,1.755603,1.739216,1.794164,1.797521,1.819443,1.810025,1.814408,1.811117,1.820863,1.814008,1.827725,1.829691,1.833649,1.841357,1.832917,1.843599,1.84253,1.847255
1034.607113,1.77749,1.761117,1.766926,1.745338,1.748086,1.745082,1.752242,1.737365,1.786902,1.793452,1.816933,1.805771,1.803514,1.807249,1.816529,1.810519,1.820684,1.823237,1.8287,1.836233,1.830467,1.840689,1.834338,1.840049
1037.062409,1.768148,1.761686,1.762578,1.74175,1.743199,1.736758,1.742516,1.732989,1.786619,1.786054,1.810373,1.798479,1.797704,1.800715,1.807097,1.806208,1.815284,1.814982,1.822602,1.827136,1.823834,1.834236,1.828692,1.832241
1039.515862,1.76303,1.757691,1.760085,1.734447,1.737307,1.73756,1.738151,1.726391,1.781501,1.786386,1.804718,1.793915,1.795938,1.796518,1.805211,1.801185,1.811071,1.813277,1.816404,1.827373,1.815898,1.829246,1.825095,1.832911
1041.967475,1.760979,1.750209,1.753974,1.732609,1.735213,1.731105,1.740381,1.725138,1.774136,1.78082,1.805358,1.789896,1.792483,1.795376,1.801612,1.795376,1.810236,1.810336,1.811941,1.825311,1.81164,1.826661,1.821082,1.830211
1044.417246,1.758302,1.745657,1.75546,1.729266,1.733454,1.729017,1.734043,1.717428,1.772614,1.775385,1.79949,1.786747,1.786461,1.793361,1.796853,1.792396,1.807598,1.813528,1.811408,1.817696,1.810704,1.82387,1.817799,1.823352
1046.865176,1.757653,1.744308,1.75172,1.726271,1.728517,1.72536,1.730187,1.715297,1.767938,1.776699,1.799652,1.784405,1.7845,1.786878,1.795158,1.789556,1.800931,1.805287,1.807381,1.815556,1.810089,1.817905,1.813624,1.825343
1049.311264,1.755525,1.742914,1.747949,1.725983,1.7294,1.724326,1.728732,1.716376,1.769431,1.770902,1.793678,1.782661,1.784747,1.786652,1.788086,1.790969,1.800721,1.800819,1.804385,1.814547,1.809185,1.818227,1.814852,1.820183
1051.755511,1.751842,1.741898,1.745361,1.721514,1.726896,1.720118,1.725731,1.710065,1.76583,1.768297,1.792609,1.778497,1.781604,1.780189,1.788173,1.787024,1.799644,1.800926,1.804697,1.810112,1.806794,1.817336,1.81254,1.815902
1054.197917,1.748901,1.738316,1.745141,1.721339,1.725563,1.720105,1.727565,1.711479,1.76464,1.770323,1.795391,1.780121,1.780971,1.781633,1.787065,1.786394,1.795196,1.798235,1.797154,1.809397,1.801494,1.816009,1.80859,1.81376
1056.638481,1.747936,1.735813,1.739415,1.717259,1.720544,1.719062,1.727106,1.710037,1.760948,1.768248,1.788784,1.779432,1.780661,1.779999,1.789847,1.784369,1.797062,1.797948,1.802106,1.809024,1.799725,1.816157,1.807914,1.810137
1059.077204,1.745432,1.738146,1.74108,1.716666,1.72053,1.71806,1.720778,1.709038,1.760925,1.765848,1.793382,1.77765,1.778971,1.782101,1.786501,1.78191,1.794751,1.795831,1.80087,1.807782,1.797602,1.811636,1.8094,1.814088
1061.514086,1.748848,1.73769,1.743495,1.717921,1.723299,1.71751,1.720891,1.7076,1.760483,1.7655,1.790815,1.775807,1.777407,1.779487,1.788197,1.784443,1.791107,1.793645,1.801649,1.811227,1.802148,1.811329,1.808686,1.809294
1063.949127,1.747959,1.73827,1.739134,1.714666,1.723838,1.717949,1.72635,1.707772,1.762044,1.766351,1.789714,1.774907,1.776412,1.777544,1.783635,1.780389,1.793913,1.795683,1.801036,1.810515,1.800338,1.811945,1.809598,1.812559
1066.382326,1.748078,1.73503,1.742462,1.718715,1.722862,1.715263,1.723279,1.709165,1.76299,1.768416,1.787136,1.7756,1.776165,1.780806,1.791799,1.783193,1.795822,1.795034,1.7976,1.807713,1.799087,1.810049,1.8066,1.814966
1067.598235,1.748935,1.735775,1.73879,1.718936,1.719597,1.720674,1.723669,1.71027,1.760502,1.767464,1.787013,1.780113,1.777837,1.782688,1.786337,1.785374,1.792456,1.797672,1.797672,1.805463,1.80135,1.815145,1.807483,1.809818
1070.028672,1.747624,1.734415,1.744021,1.720766,1.722927,1.72002,1.725687,1.708096,1.762706,1.768222,1.790917,1.778426,1.781468,1.779754,1.783092,1.784723,1.798093,1.798589,1.80008,1.813014,1.799781,1.813528,1.806802,1.813117
1072.457267,1.750036,1.740306,1.744224,1.72073,1.725227,1.719902,1.728421,1.713254,1.762993,1.76962,1.793544,1.781941,1.780703,1.783854,1.788575,1.785486,1.801056,1.802854,1.801056,1.812164,1.805868,1.813906,1.80799,1.815243
1074.884022,1.753822,1.740282,1.74656,1.723056,1.727572,1.724222,1.725727,1.713918,1.76789,1.77318,1.797669,1.780525,1.783479,1.784532,1.791976,1.789836,1.798064,1.800643,1.803637,1.813053,1.805042,1.81727,1.810909,1.820278
1077.308934,1.752729,1.744372,1.746118,1.729304,1.730315,1.724866,1.733532,1.716044,1.768372,1.7758,1.79632,1.786803,1.783358,1.786611,1.795634,1.790566,1.801258,1.804348,1.809884,1.819823,1.805449,1.821797,1.816314,1.817034
1079.732006,1.757537,1.746231,1.751318,1.725046,1.732838,1.732162,1.73683,1.718044,1.772838,1.780412,1.801182,1.788602,1.790046,1.789757,1.7997,1.79685,1.804061,1.80436,1.812713,1.816182,1.812003,1.821334,1.817927,1.826128
1082.153236,1.760679,1.751792,1.758708,1.733954,1.734039,1.733954,1.73658,1.725427,1.779487,1.782214,1.803286,1.792043,1.790983,1.794851,1.80062,1.799637,1.806467,1.810677,1.812899,1.818197,1.814726,1.82899,1.821076,1.824599
1084.572625,1.767486,1.753457,1.756811,1.735626,1.742688,1.735711,1.739696,1.72793,1.78011,1.787085,1.809006,1.792246,1.799811,1.79708,1.802165,1.804137,1.812317,1.815551,1.821989,1.824364,1.818809,1.829467,1.828003,1.832726
1086.990173,1.77041,1.758024,1.762025,1.739659,1.744521,1.740933,1.746584,1.732675,1.784757,1.789774,1.811639,1.802427,1.800276,1.801057,1.810739,1.808746,1.816978,1.821256,1.82568,1.829835,1.819417,1.832558,1.830567,1.834559
1089.405879,1.771689,1.761984,1.768971,1.745419,1.749113,1.744991,1.750236,1.73678,1.786384,1.793301,1.816851,1.804524,1.807376,1.805997,1.812836,1.811739,1.821515,1.823865,1.826847,1.834656,1.82366,1.836024,1.833397,1.841005
1091.819744,1.777137,1.767097,1.767455,1.752415,1.756323,1.749572,1.755017,1.744789,1.794596,1.797463,1.822021,1.810704,1.808141,1.813083,1.817178,1.819896,1.824974,1.828668,1.829596,1.83636,1.83094,1.846761,1.840575,1.840469
1094.231768,1.786565,1.772936,1.777008,1.756156,1.75581,1.755896,1.756243,1.747153,1.800347,1.805849,1.825927,1.815573,1.814978,1.812801,1.827967,1.823695,1.829811,1.83487,1.833625,1.846019,1.837265,1.851812,1.846446,1.848691
1096.64195,1.787835,1.780672,1.783688,1.756233,1.763964,1.758564,1.765193,1.754085,1.804446,1.808021,1.8297,1.822319,1.820419,1.823424,1.829802,1.824329,1.838663,1.839601,1.843794,1.854998,1.842953,1.854026,1.848135,1.85338
1099.050291,1.793966,1.783365,1.788864,1.766749,1.76789,1.764302,1.770181,1.753967,1.80752,1.814703,1.839164,1.825204,1.823903,1.83106,1.83648,1.832485,1.843326,1.842386,1.847212,1.852839,1.851558,1.861473,1.854981,1.859082
1101.45679,1.798187,1.7892,1.795202,1.772029,1.776637,1.776548,1.777975,1.765902,1.81811,1.822147,1.845727,1.831042,1.836427,1.833574,1.838888,1.836939,1.848451,1.848872,1.851722,1.862986,1.855444,1.863204,1.865493,1.867246
1103.861448,1.803616,1.797539,1.801362,1.780427,1.782216,1.779714,1.785725,1.769151,1.822472,1.826621,1.852597,1.839517,1.838598,1.841156,1.846215,1.846839,1.856088,1.856726,1.85662,1.86728,1.862725,1.874092,1.867607,1.871002
1106.264265,1.815876,1.809954,1.809859,1.78453,1.787853,1.788304,1.791929,1.781232,1.831043,1.836959,1.857846,1.845729,1.851327,1.850285,1.860715,1.85489,1.864678,1.870637,1.869113,1.875023,1.867702,1.879342,1.877233,1.883592
1108.665241,1.820587,1.816934,1.81703,1.799209,1.804572,1.799117,1.803921,1.792914,1.842361,1.849524,1.869153,1.859333,1.860496,1.859861,1.866892,1.864963,1.871209,1.873493,1.880306,1.891299,1.880749,1.886553,1.888694,1.889372
1111.064375,1.835081,1.829566,1.830546,1.80902,1.812958,1.813147,1.815793,1.799329,1.85485,1.860278,1.884688,1.871772,1.870265,1.875454,1.879936,1.876761,1.882361,1.888818,1.888706,1.898802,1.892875,1.902954,1.898802,1.904812
1113.461668,1.843895,1.842291,1.848236,1.827825,1.829765,1.829376,1.832105,1.81674,1.871362,1.877613,1.894659,1.886938,1.888494,1.886495,1.89715,1.891958,1.904016,1.904016,1.907374,1.91868,1.907956,1.918918,1.913933,1.921313
1115.857119,1.867813,1.860812,1.868446,1.847945,1.853311,1.851278,1.854637,1.837604,1.889187,1.892742,1.918479,1.907146,1.904846,1.912717,1.912367,1.914942,1.927569,1.92769,1.921925,1.936854,1.92878,1.940824,1.934391,1.940077
1118.250729,1.895255,1.888403,1.894587,1.877361,1.872049,1.870468,1.880472,1.86172,1.916717,1.922608,1.948011,1.932568,1.935002,1.93745,1.938556,1.939789,1.950914,1.955496,1.949397,1.964025,1.949776,1.961812,1.956521,1.962461
1120.642498,1.924543,1.916688,1.923833,1.906468,1.906015,1.903641,1.909543,1.896706,1.949373,1.946502,1.972263,1.959127,1.958999,1.963893,1.974248,1.970024,1.976509,1.979184,1.987036,1.984041,1.984584,1.991568,1.98909,1.991844
1123.032425,1.955219,1.948468,1.953333,1.934431,1.942309,1.934431,1.943166,1.938292,1.980643,1.984265,2.006513,1.997949,1.996422,1.998366,1.99976,2.000598,2.014093,2.013949,2.009501,2.022249,2.014093,2.024165,2.02328,2.026831
1125.420511,1.994705,1.986694,1.995254,1.974228,1.977245,1.972141,1.976982,1.972011,2.019666,2.025953,2.042768,2.028612,2.030989,2.035934,2.036235,2.036386,2.052991,2.048935,2.049712,2.059624,2.051114,2.06523,2.051895,2.064425
1127.806756,2.026131,2.028774,2.0362,2.015289,2.02365,2.021327,2.020604,2.014433,2.050206,2.064839,2.081642,2.070962,2.074875,2.080645,2.074057,2.076844,2.085149,2.087334,2.088515,2.100508,2.089361,2.097565,2.097393,2.10103
1130.191159,2.074154,2.058992,2.070273,2.046775,2.062931,2.055244,2.058522,2.058836,2.094265,2.09871,2.1175,2.108618,2.105814,2.115888,2.121104,2.114816,2.119839,2.130248,2.125104,2.129878,2.121285,2.139021,2.138456,2.137703
1132.573721,2.102245,2.105354,2.110412,2.092542,2.089356,2.092879,2.093891,2.085695,2.134761,2.133834,2.154496,2.140174,2.144706,2.148902,2.153139,2.147754,2.152366,2.158005,2.163124,2.171724,2.16174,2.176191,2.165108,2.169507
1134.954442,2.137607,2.136495,2.144903,2.121938,2.127884,2.124811,2.130979,2.126435,2.173158,2.173158,2.192298,2.178628,2.173762,2.181492,2.18252,2.182726,2.192509,2.192719,2.193352,2.193774,2.192719,2.203164,2.192298,2.197591
1137.333321,2.166288,2.167274,2.166683,2.160614,2.154629,2.150621,2.153863,2.157129,2.194147,2.198579,2.217884,2.203487,2.199429,2.209537,2.210408,2.196463,2.215672,2.220331,2.221448,2.227302,2.216998,2.224815,2.22414,2.226848
1139.710359,2.182024,2.192088,2.189189,2.178385,2.178787,2.175175,2.179796,2.172386,2.218872,2.218872,2.230747,2.228255,2.225554,2.223315,2.234396,2.234396,2.234625,2.236923,2.245533,2.244125,2.225778,2.242722,2.233938,2.237384
1142.085556,2.20796,2.196761,2.206891,2.188906,2.186251,2.193436,2.198643,2.184828,2.235347,2.226322,2.253979,2.243633,2.243865,2.238091,2.242936,2.234663,2.25517,2.254455,2.251606,2.263604,2.250188,2.253266,2.254217,2.25066
1144.458911,2.206655,2.212201,2.221312,2.20454,2.200133,2.205808,2.208992,2.213706,2.240587,2.236936,2.262201,2.24427,2.253143,2.25932,2.253615,2.250087,2.254324,2.272931,2.270469,2.265586,2.256696,2.268754,2.263407,2.268998
1145.644899,2.221229,2.220138,2.228499,2.210868,2.201791,2.201791,2.215802,2.205778,2.24734,2.247108,2.25601,2.255536,2.245488,2.259336,2.268738,2.264132,2.259813,2.264373,2.260291,2.276856,2.26947,2.272409,2.270203,2.277353
1148.015492,2.228995,2.225694,2.231876,2.217227,2.216368,2.216583,2.220248,2.216368,2.252832,2.24819,2.271915,2.2649,2.264181,2.272403,2.273625,2.261078,2.275342,2.274115,2.272647,2.284532,2.267547,2.279044,2.277066,2.284532
1150.384244,2.233953,2.225166,2.237742,2.228659,2.222996,2.221484,2.224731,2.222564,2.264281,2.256966,2.279045,2.268105,2.268345,2.268826,2.268826,2.262855,2.279538,2.277816,2.287247,2.28951,2.276835,2.279291,2.278061,2.287498
1152.751154,2.2289,2.226507,2.246029,2.218341,2.22564,2.229992,2.21962,2.227376,2.257992,2.261269,2.27294,2.266708,2.265995,2.274633,2.27682,2.277307,2.287173,2.283694,2.287672,2.284685,2.280243,2.286674,2.286176,2.289173
1155.116224,2.239239,2.224604,2.245729,2.228488,2.226542,2.228271,2.230007,2.225034,2.266276,2.265804,2.281922,2.271988,2.274149,2.281922,2.279478,2.267934,2.281922,2.285861,2.283641,2.283641,2.282412,2.285614,2.289587,2.296375
1157.479452,2.231454,2.243769,2.248479,2.236909,2.234719,2.236251,2.236251,2.234282,2.268317,2.261293,2.290345,2.27021,2.273302,2.280525,2.278104,2.277139,2.288858,2.271159,2.290097,2.29534,2.285407,2.287376,2.282471,2.292586
1159.840838,2.237086,2.243243,2.249489,2.228225,2.239494,2.232957,2.233823,2.229081,2.263183,2.28214,2.292434,2.285301,2.277083,2.276605,2.277562,2.27327,2.290208,2.273032,2.285789,2.294922,2.287257,2.299687,2.295171,2.290208
1162.200383,2.24412,2.239947,2.254844,2.223435,2.236031,2.230863,2.244782,2.234301,2.265375,2.279268,2.296101,2.28239,2.277835,2.283355,2.280227,2.279747,2.280466,2.280947,2.285777,2.287237,2.287725,2.302364,2.303122,2.294859
1164.558087,2.236772,2.243734,2.244393,2.236987,2.23634,2.232476,2.235048,2.234833,2.271354,2.264168,2.292672,2.283201,2.278423,2.277474,2.277711,2.282961,2.288761,2.290957,2.287547,2.292426,2.289005,2.293409,2.293409,2.295381
1166.91395,2.245182,2.23888,2.252244,2.241042,2.228224,2.232455,2.2348,2.238664,2.275082,2.273678,2.289385,2.277198,2.281699,2.280985,2.285285,2.269491,2.289628,2.292792,2.284805,2.29475,2.287934,2.300182,2.292547,2.291329
1169.267971,2.24474,2.242138,2.251755,2.231251,2.239981,2.23294,2.241274,2.243871,2.267738,2.267509,2.291053,2.274439,2.281955,2.277008,2.287919,2.283617,2.286002,2.282429,2.29057,2.295919,2.29348,2.294698,2.29275,2.297881
1171.620151,2.245574,2.241478,2.247963,2.232769,2.233821,2.2353,2.236783,2.242552,2.278176,2.278409,2.295564,2.284053,2.26985,2.282399,2.273762,2.291693,2.29049,2.287379,2.288334,2.296294,2.295321,2.30267,2.298735,2.300452
1173.970489,2.248452,2.244568,2.253246,2.239444,2.24264,2.23396,2.236271,2.248668,2.275269,2.276192,2.289801,2.279904,2.28224,2.283413,2.282943,2.277812,2.286477,2.294595,2.292431,2.31005,2.290278,2.299686,2.297982,2.302867
1176.318986,2.24449,2.245345,2.25442,2.242574,2.240243,2.238977,2.241089,2.237925,2.276823,2.282609,2.296818,2.284711,2.290604,2.285648,2.289892,2.281678,2.292507,2.293939,2.289182,2.301417,2.299475,2.30166,2.298749,2.311259
1178.665642,2.245183,2.2471,2.252255,2.232405,2.251823,2.249241,2.242217,2.241584,2.271924,2.277613,2.290397,2.283377,2.28245,2.284772,2.293237,2.285705,2.300661,2.302356,2.306253,2.303813,2.291815,2.300903,2.292289,2.306987
1181.010457,2.254857,2.252054,2.250981,2.245866,2.243121,2.246715,2.247352,2.247565,2.276587,2.278638,2.295644,2.279324,2.287407,2.275678,2.282079,2.274998,2.296834,2.301625,2.299942,2.291859,2.293984,2.297072,2.29731,2.298983
1183.35343,2.24596,2.251255,2.265993,2.247014,2.247859,2.243023,2.249129,2.249978,2.270647,2.284687,2.297771,2.29635,2.285609,2.287921,2.28885,2.28607,2.299672,2.300149,2.296586,2.305428,2.292584,2.304704,2.306395,2.294698
1185.694562,2.258659,2.256511,2.255655,2.241559,2.240526,2.246137,2.245719,2.243842,2.270666,2.276459,2.298075,2.287363,2.284154,2.283698,2.290132,2.287133,2.291988,2.291059,2.296898,2.30234,2.290132,2.301389,2.301864,2.310269
1188.033852,2.244529,2.247437,2.244116,2.23511,2.239385,2.243496,2.250784,2.24267,2.285984,2.280328,2.291485,2.288039,2.280103,2.281228,2.294029,2.288726,2.306502,2.291946,2.300574,2.301517,2.295656,2.29846,2.294726,2.300574
1190.371301,2.250351,2.246821,2.262615,2.24209,2.249934,2.247028,2.239439,2.244964,2.270405,2.278116,2.292119,2.283933,2.286871,2.284609,2.288689,2.292349,2.297896,2.297896,2.296271,2.297431,2.295807,2.297199,2.302808,2.298827
1192.706909,2.253198,2.249459,2.256128,2.240454,2.25008,2.239847,2.248633,2.241468,2.269564,2.274137,2.297059,2.282759,2.279866,2.28031,2.284773,2.280088,2.297983,2.297752,2.296598,2.304977,2.296137,2.302867,2.304507,2.297752
1195.040675,2.245758,2.252536,2.255861,2.239285,2.241903,2.24029,2.240894,2.240693,2.280316,2.272661,2.302268,2.275052,2.29857,2.287212,2.287436,2.28453,2.286988,2.292627,2.29104,2.306935,2.292854,2.299491,2.29834,2.307875
1197.3726,2.247373,2.241717,2.252486,2.235936,2.241717,2.231405,2.234947,2.23396,2.272484,2.277685,2.284497,2.284275,2.277467,2.282288,2.280968,2.275727,2.292093,2.293447,2.296624,2.304669,2.287832,2.303279,2.292544,2.302817
1199.702684,2.247754,2.236571,2.25325,2.238151,2.236374,2.239142,2.238349,2.238349,2.264666,2.274234,2.276606,2.279861,2.28336,2.28336,2.28336,2.284459,2.281607,2.286223,2.299007,2.29268,2.292232,2.301519,2.304044,2.30129
1202.030926,2.248144,2.245135,2.248345,2.23467,2.23428,2.23428,2.236821,2.240959,2.266645,2.276629,2.291938,2.273844,2.283779,2.28356,2.284216,2.276199,2.288833,2.289054,2.285311,2.300707,2.293052,2.299573,2.284435,2.295739
1204.357327,2.237896,2.236725,2.242612,2.224425,2.228805,2.225184,2.23907,2.234004,2.273734,2.266994,2.286442,2.276502,2.268879,2.275436,2.291941,2.28058,2.285351,2.286442,2.288414,2.299758,2.286442,2.293049,2.287536,2.294383
1206.681887,2.241747,2.239595,2.247076,2.231473,2.237647,2.236871,2.238231,2.230325,2.266155,2.270745,2.28829,2.26907,2.274747,2.281788,2.281573,2.273902,2.2872,2.285678,2.278574,2.289164,2.288727,2.29026,2.29312,2.29312
1209.004605,2.236687,2.247232,2.242905,2.230176,2.232845,2.229796,2.232463,2.225262,2.269124,2.269748,2.282852,2.273092,2.276673,2.266636,2.275828,2.274563,2.292616,2.288249,2.283066,2.290646,2.280071,2.300813,2.284356,2.283926
1211.325482,2.235841,2.233929,2.237377,2.228807,2.224492,2.225801,2.228619,2.22843,2.260891,2.261297,2.280833,2.273665,2.271371,2.26971,2.273038,2.274502,2.284033,2.277867,2.284676,2.283819,2.28877,2.293779,2.28532,2.290071
1213.644518,2.232659,2.228137,2.245538,2.22795,2.22218,2.22795,2.230958,2.223106,2.261029,2.264276,2.272709,2.267958,2.273749,2.267548,2.271672,2.269193,2.278564,2.282795,2.282582,2.286853,2.277933,2.296398,2.279618,2.279618
1215.961712,2.238576,2.230989,2.229863,2.22261,2.222058,2.211684,2.229301,2.227059,2.251981,2.262972,2.274663,2.265407,2.267856,2.269496,2.27321,2.260953,2.277165,2.274663,2.275495,2.288391,2.277374,2.283484,2.280102,2.283696
1218.277065,2.23453,2.226111,2.235476,2.214052,2.219492,2.211716,2.227225,2.223525,2.254634,2.267486,2.278842,2.26525,2.264844,2.269938,2.274057,2.27385,2.278215,2.272404,2.273643,2.295691,2.274885,2.283892,2.280518,2.286226
1220.590577,2.232728,2.232354,2.233291,2.218524,2.220343,2.21798,2.220343,2.216894,2.252682,2.253075,2.271131,2.258016,2.253665,2.260407,2.275455,2.269495,2.269291,2.265837,2.268069,2.279195,2.2697,2.284867,2.286349,2.280449
1221.746642,2.223964,2.229875,2.231366,2.218313,2.213988,2.215245,2.216325,2.222316,2.25653,2.252201,2.273263,2.258313,2.258711,2.259905,2.268561,2.260104,2.270395,2.280099,2.27491,2.281353,2.276771,2.288106,2.279056,2.286196
1224.057392,2.227004,2.223879,2.227742,2.213204,2.217154,2.216973,2.220412,2.209999,2.253829,2.251675,2.271451,2.262751,2.262751,2.26617,2.258366,2.25916,2.273089,2.270227,2.270227,2.278872,2.270431,2.28242,2.276591,2.276177
1226.3663,2.218539,2.226562,2.229516,2.220894,2.212975,2.214404,2.211372,2.207305,2.253904,2.247098,2.271502,2.256065,2.263014,2.263014,2.264819,2.252144,2.266631,2.264216,2.26643,2.272728,2.261815,2.28141,2.267642,2.275397
1228.673367,2.2142,2.221039,2.219771,2.207466,2.214557,2.206062,2.217066,2.206413,2.253224,2.247981,2.259125,2.254986,2.251275,2.256755,2.254398,2.257938,2.264104,2.270359,2.268939,2.277118,2.262904,2.2726,2.275264,2.263104
1230.978592,2.221266,2.209117,2.221991,2.208061,2.208765,2.206482,2.199189,2.202473,2.238828,2.244143,2.261085,2.250298,2.250104,2.250686,2.250492,2.247595,2.259301,2.268899,2.258511,2.271332,2.256935,2.259499,2.263674,2.271129
1233.281976,2.212356,2.211294,2.214844,2.20168,2.212002,2.200471,2.200299,2.204107,2.24016,2.235276,2.256326,2.242054,2.240349,2.246439,2.24836,2.247399,2.257897,2.25613,2.263243,2.26484,2.261652,2.271692,2.269665,2.263841
1235.583519,2.216316,2.200369,2.209937,2.196088,2.200197,2.199166,2.197625,2.199338,2.235475,2.235662,2.253181,2.235849,2.230836,2.240919,2.252598,2.241676,2.258853,2.255714,2.260036,2.257281,2.252598,2.265999,2.255128,2.260628
1237.883221,2.205974,2.206322,2.20062,2.188767,2.198053,2.193132,2.197712,2.194992,2.229726,2.236385,2.248864,2.244285,2.23564,2.242391,2.241824,2.23471,2.240693,2.251751,2.245425,2.256606,2.252718,2.265085,2.256801,2.263693
1240.181081,2.195552,2.202877,2.201847,2.192354,2.194877,2.190013,2.18918,2.1829,2.226893,2.231823,2.246768,2.242042,2.236624,2.238671,2.239605,2.232742,2.242418,2.245061,2.239979,2.257544,2.247529,2.257349,2.250203,2.267796
1242.4771,2.199949,2.201649,2.203355,2.184452,2.190053,2.187244,2.18675,2.186421,2.221868,2.220799,2.243263,2.237491,2.240647,2.241393,2.234725,2.227978,2.240833,2.242327,2.24046,2.258911,2.246461,2.250635,2.253504,2.256393
1244.771277,2.192814,2.190829,2.199667,2.185252,2.186068,2.18951,2.196143,2.185415,2.225165,2.225522,2.246024,2.236935,2.23237,2.238222,2.237302,2.231463,2.245274,2.238774,2.238038,2.252824,2.236568,2.262061,2.243221,2.254159
1247.063613,2.196757,2.191635,2.197423,2.186086,2.187711,2.186248,2.188689,2.182855,2.220146,2.223668,2.237502,2.239148,2.226329,2.229902,2.233143,2.229185,2.240433,2.241169,2.240985,2.250473,2.245796,2.256152,2.248409,2.253682
1249.354108,2.194141,2.188267,2.203606,2.182312,2.18536,2.184877,2.183753,2.184235,2.215519,2.2216,2.236553,2.230974,2.232587,2.230974,2.240373,2.220203,2.237278,2.235829,2.240556,2.252978,2.242938,2.253731,2.240921,2.252414
1251.642762,2.189816,2.19617,2.199796,2.186593,2.186753,2.188524,2.186593,2.183872,2.225887,2.225185,2.240544,2.234228,2.232261,2.235843,2.240726,2.229771,2.239273,2.238549,2.240908,2.250101,2.239999,2.254585,2.250473,2.252337
1253.929574,2.190093,2.19365,2.198384,2.181483,2.180065,2.183223,2.192677,2.178494,2.221993,2.224251,2.244944,2.224949,2.232517,2.23234,2.230922,2.231808,2.238236,2.231099,2.242757,2.249167,2.246042,2.254177,2.246775,2.249536
1256.214544,2.194564,2.19038,2.195049,2.179469,2.189261,2.184337,2.187666,2.189261,2.226773,2.221237,2.236102,2.226425,2.235391,2.229744,2.239496,2.230095,2.244546,2.234504,2.247824,2.252048,2.239137,2.248555,2.250574,2.246182
1258.497674,2.194182,2.193059,2.197568,2.188279,2.190503,2.178875,2.185594,2.1823,2.218118,2.219989,2.246339,2.228422,2.238443,2.236845,2.243631,2.230338,2.238087,2.241656,2.245435,2.253829,2.250342,2.252357,2.241835,2.25586
1260.778962,2.197491,2.199265,2.198619,2.191734,2.186681,2.188411,2.190466,2.184332,2.227305,2.221482,2.24418,2.237774,2.231114,2.237774,2.237774,2.231811,2.242927,2.245796,2.244359,2.249409,2.246156,2.250863,2.24959,2.256727
1263.058409,2.193645,2.205712,2.202137,2.189853,2.189696,2.190168,2.193328,2.190798,2.226257,2.226942,2.247643,2.239455,2.240692,2.237696,2.236468,2.239808,2.245492,2.244956,2.246566,2.256355,2.250709,2.251977,2.261333,2.253067
1265.336014,2.205792,2.200792,2.212824,2.188147,2.199031,2.192846,2.190647,2.186592,2.232902,2.228949,2.252867,2.236196,2.239164,2.246406,2.245339,2.241623,2.250343,2.249804,2.250164,2.249625,2.244984,2.253591,2.262003,2.255588
1267.611778,2.203231,2.208071,2.206128,2.195282,2.197968,2.196228,2.19781,2.200352,2.234836,2.231227,2.254604,2.245667,2.248151,2.24496,2.247618,2.247085,2.244784,2.248863,2.257321,2.260787,2.262623,2.256232,2.261888,2.260604
1269.885701,2.210019,2.208401,2.215728,2.196301,2.206951,2.206951,2.206629,2.196616,2.230593,2.238134,2.260847,2.252369,2.244403,2.247925,2.252547,2.254518,2.256137,2.259392,2.258486,2.271918,2.256858,2.265978,2.264506,2.266716
1272.157782,2.219795,2.21537,2.218315,2.208573,2.213579,2.200935,2.209538,2.207771,2.242627,2.244716,2.269488,2.258363,2.249806,2.25442,2.257464,2.251575,2.26071,2.262343,2.264894,2.273198,2.264346,2.267645,2.26526,2.27264
1274.428022,2.221956,2.222781,2.232631,2.211538,2.218347,2.21753,2.218837,2.208173,2.250205,2.258548,2.275173,2.261065,2.265049,2.261065,2.267421,2.261786,2.263415,2.271649,2.273871,2.275359,2.272388,2.274057,2.272203,2.284015
1276.696421,2.232323,2.22881,2.228977,2.218928,2.221542,2.22105,2.226484,2.22056,2.25685,2.264017,2.27555,2.262034,2.270753,2.257918,2.271671,2.274253,2.274253,2.275736,2.276664,2.283035,2.273699,2.281527,2.283224,2.284358
1278.962978,2.237816,2.242754,2.244986,2.233101,2.234947,2.232264,2.235452,2.232264,2.271606,2.267961,2.283291,2.27436,2.274913,2.27344,2.274913,2.271789,2.279734,2.284232,2.289731,2.295881,2.285742,2.288207,2.296074,2.293757
1281.227694,2.245625,2.237971,2.249936,2.238984,2.240168,2.240168,2.24614,2.236624,2.267621,2.274352,2.288513,2.277664,2.287,2.282307,2.284929,2.281188,2.295385,2.283429,2.289081,2.294424,2.300612,2.300223,2.300028,2.303543
1283.490568,2.257176,2.251773,2.259286,2.25403,2.250389,2.250044,2.247463,2.252466,2.283944,2.284878,2.298166,2.286564,2.289199,2.278015,2.293946,2.292611,2.299904,2.299131,2.29778,2.306338,2.297011,2.307518,2.307321,2.310086
1285.751602,2.263944,2.261292,2.278734,2.249984,2.257956,2.257431,2.261116,2.256908,2.29215,2.297098,2.311696,2.299979,2.29844,2.299401,2.304433,2.302103,2.304822,2.307559,2.307363,2.313879,2.306971,2.316473,2.316873,2.312687
1288.010794,2.270221,2.280739,2.280739,2.26772,2.268612,2.267542,2.26772,2.265411,2.298154,2.303538,2.318094,2.312134,2.309184,2.311345,2.311345,2.310362,2.319497,2.323124,2.32434,2.327599,2.320099,2.329854,2.329033,2.319497
1290.268144,2.286805,2.283112,2.29184,2.283664,2.283664,2.274194,2.278539,2.271859,2.303438,2.312392,2.328828,2.316344,2.318334,2.317736,2.323751,2.317935,2.325978,2.329851,2.327197,2.332315,2.329851,2.338746,2.338955,2.331903
1292.523653,2.296785,2.298869,2.300201,2.284666,2.290403,2.280275,2.287247,2.287803,2.323894,2.317303,2.335726,2.321886,2.327532,2.33202,2.338215,2.327938,2.337799,2.336969,2.334487,2.338839,2.340718,2.339048,2.34598,2.346192
1293.650717,2.303268,2.298126,2.31531,2.294731,2.302885,2.298126,2.294731,2.288391,2.320661,2.327292,2.346753,2.332383,2.336914,2.339821,2.331769,2.327697,2.346965,2.337121,2.345696,2.344852,2.34443,2.350795,2.344852,2.338573
1295.903465,2.304251,2.301579,2.316677,2.299871,2.303677,2.301579,2.308096,2.30177,2.334159,2.33498,2.356889,2.345376,2.347273,2.342649,2.340979,2.339316,2.351948,2.340563,2.353875,2.360142,2.349392,2.356242,2.354304,2.358621
1298.154371,2.326637,2.330675,2.321841,2.320848,2.308338,2.308916,2.313572,2.320055,2.345741,2.348058,2.362657,2.34848,2.349115,2.345112,2.350599,2.35401,2.358961,2.367267,2.352088,2.362221,2.350174,2.366385,2.355726,2.369479
1300.403435,2.325986,2.326587,2.343965,2.329604,2.324189,2.32739,2.332438,2.325386,2.367099,2.354522,2.373973,2.366,2.359466,2.367539,2.3682,2.355807,2.37375,2.361416,2.371299,2.373303,2.369969,2.375765,2.37599,2.363375
1302.650658,2.340993,2.339755,2.350607,2.333818,2.331789,2.33606,2.334021,2.336469,2.366754,2.366973,2.379214,2.367412,2.370942,2.37072,2.377412,2.376738,2.375394,2.367852,2.38125,2.374723,2.3745,2.394841,2.375841,2.392508
1304.89604,2.350309,2.352845,2.36488,2.345073,2.346115,2.349467,2.349888,2.351153,2.376138,2.37191,2.393476,2.372353,2.378155,2.382445,2.387466,2.385405,2.386778,2.389998,2.388155,2.389768,2.389306,2.392313,2.387696,2.393476
1307.139581,2.362838,2.363271,2.374244,2.358315,2.359818,2.357673,2.361757,2.359603,2.392168,2.38756,2.400351,2.380513,2.391936,2.390549,2.394723,2.386644,2.397528,2.399879,2.398702,2.394025,2.396123,2.40343,2.405814,2.402481
1309.38128,2.38225,2.372861,2.38225,2.366714,2.363239,2.361082,2.375968,2.375301,2.390692,2.401185,2.409766,2.394859,2.397191,2.404264,2.411938,2.397191,2.404502,2.412665,2.401657,2.414121,2.402604,2.409526,2.404978,2.412907
1311.621137,2.391595,2.387696,2.389297,2.375315,2.381799,2.380899,2.383831,2.379105,2.402325,2.39646,2.415511,2.40803,2.411151,2.402561,2.40612,2.416242,2.409468,2.41067,2.4126,2.420408,2.4209,2.4209,2.41673,2.417953
1313.859154,2.385379,2.389023,2.403676,2.381991,2.383343,2.395242,2.38697,2.392467,2.411552,2.40987,2.428249,2.415667,2.425504,2.414453,2.414938,2.416884,2.420066,2.414453,2.417616,2.430004,2.417616,2.42105,2.41083,2.430507
1316.095329,2.390946,2.394401,2.397418,2.394401,2.389343,2.393708,2.398818,2.397884,2.413791,2.417189,2.426301,2.421106,2.424563,2.414517,2.425059,2.421106,2.415487,2.421106,2.424067,2.433074,2.430805,2.437137,2.422338,2.436882
1318.329663,2.402322,2.412076,2.414973,2.408244,2.406577,2.397642,2.396944,2.408005,2.429004,2.437849,2.44247,2.428004,2.437849,2.426509,2.423535,2.426509,2.435812,2.432773,2.433278,2.429755,2.431261,2.438105,2.441439,2.436829
1320.562155,2.396937,2.413989,2.419336,2.409424,2.410381,2.408469,2.406565,2.400669,2.425493,2.441921,2.444246,2.438586,2.421788,2.434768,2.447104,2.438075,2.442179,2.443728,2.439866,2.437819,2.434768,2.438841,2.441149,2.438841
1322.792806,2.419797,2.417114,2.422496,2.414205,2.417114,2.405596,2.4176,2.421267,2.433719,2.429946,2.450459,2.443427,2.44498,2.434984,2.44188,2.442653,2.455743,2.433467,2.441623,2.446799,2.442911,2.44524,2.445499,2.44524
1325.021616,2.418782,2.41805,2.425667,2.426412,2.429402,2.422457,2.420738,2.418782,2.436714,2.432161,2.457014,2.442602,2.447787,2.434937,2.455153,2.444668,2.442859,2.440288,2.447006,2.448048,2.451454,2.454093,2.445706,2.453036
1327.248584,2.426442,2.433451,2.432695,2.425698,2.42446,2.426194,2.436236,2.419545,2.443923,2.447818,2.460522,2.446776,2.440063,2.459181,2.435728,2.443665,2.443665,2.450959,2.446256,2.461598,2.446516,2.449124,2.459985,2.448079
1329.473711,2.427826,2.443297,2.443039,2.426334,2.424846,2.42017,2.421887,2.434606,2.449539,2.456403,2.452958,2.448754,2.45481,2.451639,2.460145,2.442008,2.468546,2.459877,2.454015,2.455871,2.451903,2.459608,2.456403,2.462298
1331.696997,2.421766,2.439321,2.445506,2.433727,2.438043,2.429703,2.426461,2.435752,2.458684,2.456016,2.464882,2.452045,2.452837,2.457615,2.455485,2.454159,2.458149,2.456548,2.458416,2.457081,2.452045,2.459487,2.463798,2.467605
1333.918441,2.419449,2.435906,2.451427,2.426106,2.438454,2.426852,2.430853,2.442564,2.456727,2.439222,2.466432,2.459669,2.452746,2.465343,2.462092,2.45726,2.470816,2.457794,2.458865,2.464528,2.454864,2.461013,2.463173,2.466159
1336.138044,2.430767,2.443009,2.453216,2.435318,2.439146,2.438634,2.445864,2.443786,2.457741,2.460425,2.478289,2.460964,2.459887,2.455606,2.459618,2.451894,2.457206,2.464483,2.465027,2.477448,2.461234,2.470503,2.473823,2.473268
1338.355806,2.437509,2.44525,2.456059,2.436997,2.44395,2.436487,2.448124,2.443691,2.459812,2.458468,2.473487,2.460081,2.455792,2.467143,2.475158,2.472655,2.463326,2.464141,2.470718,2.470718,2.46387,2.475995,2.467417,2.466596
1340.571726,2.444314,2.454583,2.445617,2.444314,2.451662,2.448498,2.431242,2.43276,2.466194,2.462108,2.477,2.45672,2.457792,2.470871,2.468664,2.460755,2.456988,2.46401,2.472812,2.480662,2.452722,2.474203,2.46592,2.471425
1342.785805,2.439692,2.441242,2.454379,2.453314,2.442798,2.446187,2.443577,2.446187,2.464091,2.460829,2.479643,2.470965,2.460018,2.467927,2.471242,2.454379,2.472075,2.463545,2.477105,2.471797,2.468478,2.465731,2.472353,2.462729
1344.998043,2.433436,2.452707,2.456719,2.444791,2.450582,2.451377,2.45244,2.449259,2.467054,2.46568,2.475109,2.456719,2.467604,2.469538,2.474549,2.468156,2.464584,2.472872,2.472593,2.467604,2.477076,2.477076,2.470924,2.474829
1347.208439,2.45159,2.454259,2.452122,2.443418,2.455869,2.44394,2.458024,2.456676,2.457214,2.467305,2.476789,2.470907,2.470629,2.467305,2.46841,2.470351,2.478485,2.469518,2.471743,2.49025,2.466478,2.469241,2.476789,2.473698
1349.416994,2.445059,2.45222,2.45706,2.458686,2.448492,2.44982,2.447433,2.453559,2.471635,2.466906,2.473596,2.463325,2.468014,2.466353,2.473877,2.460863,2.476698,2.468014,2.471076,2.485847,2.468014,2.472474,2.474722,2.486136
1351.623708,2.443883,2.473001,2.463811,2.451316,2.448381,2.458606,2.452657,2.456975,2.467964,2.469078,2.473846,2.466852,2.475258,2.480381,2.471596,2.46713,2.461338,2.47441,2.473282,2.466298,2.471876,2.479238,2.471876,2.457518
1353.82858,2.457777,2.455873,2.45969,2.454248,2.447007,2.462161,2.449942,2.453977,2.483612,2.471346,2.479294,2.473602,2.470222,2.477008,2.470784,2.466034,2.469942,2.476723,2.48739,2.469942,2.468822,2.469381,2.467984,2.477293
1356.031611,2.456167,2.470843,2.468036,2.445942,2.465247,2.451293,2.459447,2.469157,2.473102,2.477942,2.484577,2.467477,2.467197,2.469157,2.477084,2.464691,2.473386,2.475658,2.476513,2.483416,2.47737,2.486033,2.481103,2.471125
1358.2328,2.461003,2.451446,2.470493,2.448217,2.461003,2.448217,2.455516,2.451716,2.471058,2.468803,2.479907,2.479618,2.468522,2.477319,2.469084,2.472189,2.476746,2.479618,2.471623,2.47646,2.477319,2.479618,2.48164,2.472473
1360.432149,2.454733,2.462722,2.4686,2.448769,2.453098,2.460227,2.456648,2.45446,2.473133,2.473133,2.4838,2.484384,2.47228,2.486729,2.485262,2.463,2.478002,2.463836,2.482925,2.481471,2.481471,2.481471,2.481762,2.4838
1362.629656,2.468133,2.477264,2.467287,2.460575,2.464198,2.47439,2.452329,2.475538,2.482195,2.467005,2.486592,2.474677,2.470966,2.470398,2.478419,2.473818,2.488363,2.473532,2.482486,2.485709,2.479868,2.47813,2.476688,2.480448
1364.825321,2.464114,2.469193,2.468059,2.457985,2.458539,2.464956,2.47033,2.468343,2.483916,2.476348,2.502821,2.47462,2.47462,2.4709,2.472327,2.477215,2.487751,2.480407,2.470615,2.485682,2.476348,2.478083,2.479534,2.493716
1365.922463,2.459657,2.46893,2.477826,2.461887,2.460213,2.46893,2.470923,2.46893,2.479569,2.470068,2.484546,2.479278,2.486316,2.481027,2.476379,2.482783,2.476668,2.486612,2.484546,2.482197,2.483664,2.474361,2.484546,2.470638
1368.115367,2.470687,2.476733,2.484927,2.470401,2.463597,2.465571,2.46416,2.464724,2.487892,2.473555,2.483158,2.474131,2.484042,2.485223,2.483452,2.475285,2.480811,2.485223,2.490278,2.484632,2.470115,2.478767,2.477603,2.481396
1370.306429,2.478274,2.470177,2.486524,2.461106,2.466469,2.467607,2.464768,2.472475,2.469319,2.472475,2.486226,2.49554,2.47915,2.477108,2.48891,2.466185,2.483855,2.477982,2.49463,2.491911,2.486821,2.488014,2.487417,2.483855
1372.49565,2.476679,2.479902,2.484335,2.48108,2.474351,2.460635,2.466868,2.478727,2.479608,2.488814,2.478434,2.478727,2.491523,2.477556,2.477848,2.477848,2.490317,2.474351,2.484929,2.489715,2.487615,2.485823,2.48226,2.478727
1374.683029,2.474276,2.478376,2.485795,2.4772,2.475443,2.473112,2.478965,2.481625,2.485795,2.481032,2.494563,2.487895,2.482515,2.491216,2.47985,2.486394,2.481032,2.476614,2.469637,2.490308,2.490308,2.485795,2.484898,2.486694
1376.868567,2.486734,2.487035,2.484629,2.478376,2.477785,2.473087,2.478968,2.48045,2.478376,2.475723,2.492193,2.478968,2.482236,2.48373,2.47749,2.488546,2.482535,2.488243,2.47192,2.501135,2.479857,2.505833,2.488546,2.482833
1379.052264,2.491463,2.49177,2.493613,2.481772,2.477599,2.484777,2.479382,2.483873,2.485985,2.485381,2.50389,2.492383,2.491157,2.469953,2.500437,2.478192,2.484174,2.484777,2.486893,2.493921,2.482671,2.4995,2.484174,2.492076
1381.234119,2.485419,2.49092,2.483298,2.482694,2.49618,2.479387,2.478489,2.485722,2.482996,2.473437,2.504986,2.483298,2.489691,2.492461,2.481789,2.480887,2.495558,2.49092,2.485115,2.496492,2.488466,2.493697,2.498678,2.495247
1383.414134,2.487539,2.482353,2.498416,2.486926,2.480235,2.487232,2.494968,2.489385,2.49031,2.49341,2.490928,2.488153,2.500309,2.489693,2.487846,2.487846,2.486619,2.494344,2.482656,2.486926,2.483263,2.496532,2.496219,2.500625
1385.592306,2.482656,2.483879,2.504578,2.482656,2.488497,2.48174,2.470311,2.489427,2.481436,2.477796,2.513667,2.491604,2.482656,2.500741,2.496621,2.482045,2.491916,2.480523,2.500741,2.496937,2.486952,2.503295,2.489117,2.497568
1387.768638,2.482387,2.483002,2.497715,2.482694,2.490453,2.487333,2.47477,2.486711,2.501231,2.484235,2.498671,2.491393,2.495492,2.48889,2.487022,2.486091,2.473564,2.497397,2.495175,2.506723,2.49899,2.49328,2.493911,2.491707
1389.943128,2.497589,2.490274,2.494393,2.479989,2.487131,2.475393,2.478144,2.480297,2.486193,2.481222,2.503076,2.486818,2.496308,2.489958,2.492487,2.480914,2.492804,2.479373,2.491221,2.485257,2.484011,2.49984,2.488386,2.485881
1392.115776,2.488548,2.497509,2.483822,2.482883,2.469945,2.480078,2.487282,2.473603,2.484449,2.488231,2.493005,2.483196,2.495895,2.484449,2.492685,2.489182,2.486967,2.49654,2.487915,2.484763,2.479767,2.501733,2.487282,2.486021
1394.286584,2.486451,2.47983,2.501974,2.480769,2.489,2.470237,2.47983,2.482026,2.48868,2.500659,2.494143,2.497389,2.483285,2.483917,2.475781,2.47983,2.497063,2.484549,2.475471,2.495763,2.495763,2.484232,2.492852,2.487723
1396.45555,2.486492,2.481401,2.502796,2.476995,2.482351,2.471086,2.490995,2.484894,2.490026,2.482668,2.497512,2.484576,2.483939,2.483303,2.486812,2.480769,2.480453,2.476369,2.486492,2.487453,2.474497,2.485213,2.482985,2.491319
1398.622674,2.476863,2.477809,2.484173,2.470916,2.474662,2.481616,2.480343,2.480979,2.479709,2.485135,2.494881,2.494881,2.487713,2.490631,2.493568,2.485778,2.489007,2.494552,2.475604,2.488359,2.485457,2.503172,2.485778,2.484173
1400.787958,2.491207,2.493177,2.48762,2.47608,2.481812,2.476713,2.467933,2.484383,2.488921,2.472929,2.49648,2.474502,2.480531,2.487295,2.477665,2.482453,2.4783,2.485675,2.489573,2.494825,2.48827,2.490226,2.487944,2.478618
1402.9514,2.479189,2.490866,2.491524,2.48015,2.481757,2.48015,2.476636,2.477592,2.489225,2.481757,2.495161,2.487591,2.479509,2.473151,2.484016,2.494166,2.465021,2.487265,2.490538,2.485963,2.47189,2.486939,2.48434,2.483047
1405.113,2.488282,2.484689,2.507051,2.485992,2.479194,2.461876,2.477911,2.460028,2.487954,2.486319,2.501267,2.481448,2.482741,2.478872,2.475674,2.482418,2.49456,2.487954,2.482741,2.488282,2.483714,2.490255,2.480803,2.489596
1407.27276,2.484401,2.484727,2.496291,2.469038,2.483425,2.461246,2.485706,2.483425,2.481155,2.481155,2.487672,2.485053,2.489976,2.488,2.474417,2.470929,2.488658,2.492292,2.488987,2.484727,2.47922,2.497297,2.48375,2.499653
1409.430678,2.478917,2.490682,2.492009,2.486068,2.492009,2.464645,2.469666,2.48771,2.491676,2.48378,2.48378,2.472198,2.474745,2.482803,2.485413,2.475384,2.469035,2.476025,2.481504,2.489689,2.485413,2.478594,2.479239,2.489358
1411.586754,2.488407,2.477651,2.486432,2.485447,2.478618,2.480234,2.482833,2.480558,2.485775,2.472212,2.488407,2.485447,2.473805,2.479264,2.481207,2.478295,2.474444,2.476044,2.490723,2.497747,2.484792,2.475724,2.485447,2.477651
1413.74099,2.488183,2.490833,2.492498,2.481302,2.475169,2.478386,2.472613,2.47968,2.485877,2.485549,2.500918,2.483584,2.48391,2.47968,2.480652,2.484893,2.492831,2.475811,2.484565,2.506393,2.474849,2.486864,2.480652,2.494504
1415.893383,2.477578,2.477901,2.499413,2.476289,2.483425,2.484407,2.488689,2.469586,2.482119,2.473084,2.49068,2.49068,2.475968,2.49068,2.48902,2.486708,2.480817,2.472765,2.496707,2.493348,2.474684,2.488358,2.482119,2.498735
1418.043936,2.481968,2.494212,2.48689,2.483602,2.485901,2.48987,2.473886,2.480014,2.490535,2.468159,2.488212,2.465638,2.485572,2.467212,2.480014,2.466897,2.481642,2.487551,2.482621,2.490535,2.48393,2.474207,2.484258,2.485243
1420.192647,2.488525,2.497231,2.501309,2.474498,2.485881,2.474498,2.478691,2.483908,2.484893,2.47934,2.492521,2.48621,2.48654,2.479665,2.495543,2.490519,2.489188,2.48621,2.490186,2.487862,2.47934,2.487531,2.474819,2.502335
1422.339517,2.488631,2.498701,2.483683,2.481393,2.482373,2.475237,2.483028,2.486645,2.487968,2.482373,2.505891,2.481067,2.478466,2.487637,2.472671,2.480415,2.4827,2.490294,2.488631,2.474273,2.475237,2.489961,2.490294,2.485985
1424.484546,2.483328,2.494282,2.500716,2.494618,2.482673,2.473285,2.477468,2.485299,2.485629,2.491267,2.495291,2.484313,2.501399,2.486618,2.481366,2.49361,2.4906,2.484641,2.494955,2.479413,2.486949,2.494618,2.49361,2.489934
1426.627733,2.476041,2.500921,2.482865,2.484506,2.471231,2.479277,2.47155,2.482865,2.492469,2.482538,2.49381,2.490131,2.488801,2.491131,2.481557,2.492803,2.487475,2.491131,2.488137,2.489798,2.481557,2.498199,2.488801,2.481557
1428.769079,2.484632,2.501744,2.495965,2.476484,2.482662,2.471667,2.474229,2.47071,2.512485,2.48595,2.492936,2.486941,2.490261,2.486941,2.476161,2.486941,2.48893,2.482335,2.497996,2.486941,2.487272,2.494616,2.495627,2.495965
1430.908583,2.51227,2.493392,2.484745,2.486395,2.488383,2.487056,2.476591,2.485404,2.490713,2.479834,2.485404,2.486395,2.484745,2.495074,2.491047,2.494064,2.477561,2.48016,2.489047,2.491047,2.496087,2.503243,2.489713,2.483759
1433.046246,2.490483,2.48915,2.47993,2.495857,2.484187,2.488485,2.479279,2.477332,2.487489,2.495857,2.49925,2.48915,2.476361,2.49552,2.485505,2.48189,2.479605,2.493834,2.497211,2.504735,2.486165,2.487489,2.490817,2.484187
1435.182068,2.491518,2.492189,2.511403,2.479945,2.477019,2.473468,2.492189,2.483879,2.484868,2.491518,2.488846,2.492525,2.508605,2.497253,2.502376,2.495558,2.499295,2.48818,2.491854,2.489512,2.493534,2.497253,2.489179,2.509652
1436.249288,2.492879,2.490531,2.500344,2.472508,2.503091,2.477025,2.480281,2.483561,2.490866,2.476701,2.498295,2.495579,2.492879,2.487198,2.493216,2.479301,2.491871,2.497275,2.50447,2.496596,2.485872,2.483232,2.479628,2.502059
1438.382348,2.487486,2.484505,2.490152,2.494183,2.499274,2.496212,2.482858,2.48089,2.507199,2.495535,2.502014,2.48253,2.499616,2.484836,2.502702,2.483187,2.495873,2.486822,2.478605,2.497911,2.487486,2.49452,2.491156,2.488817
1440.513567,2.493288,2.506978,2.511171,2.493625,2.484615,2.486601,2.484945,2.48067,2.499737,2.483625,2.49769,2.499737,2.489597,2.490936,2.494637,2.493288,2.479036,2.496331,2.492278,2.490601,2.477409,2.492614,2.494976,2.48793
1442.642944,2.506204,2.49118,2.49931,2.50068,2.501711,2.493535,2.477958,2.497604,2.508992,2.496583,2.515333,2.476983,2.489505,2.491516,2.498286,2.485511,2.492188,2.500337,2.497263,2.49931,2.489839,2.498968,2.477308,2.495226
1444.77048,2.500125,2.513715,2.495349,2.492306,2.495349,2.489954,2.476103,2.487615,2.489619,2.493656,2.501844,2.500469,2.502189,2.501844,2.493994,2.488616,2.494671,2.497049,2.494332,2.487948,2.489954,2.490625,2.500469,2.506345
1446.896174,2.497785,2.516997,2.505716,2.496761,2.508159,2.489996,2.485988,2.499497,2.487653,2.510264,2.505021,2.486653,2.490332,2.504673,2.499497,2.50746,2.493028,2.49269,2.500871,2.483997,2.500871,2.4954,2.494043,2.497102
1449.020027,2.480325,2.506756,2.50397,2.499824,2.493001,2.49674,2.490975,2.500857,2.494357,2.506756,2.511322,2.494697,2.495037,2.493001,2.494018,2.488623,2.498794,2.494018,2.506058,2.493001,2.481312,2.505709,2.499137,2.511322
1451.142039,2.4987,2.503537,2.510189,2.500076,2.488848,2.497328,2.503884,2.492559,2.507376,2.505626,2.509132,2.514087,2.507376,2.485502,2.486838,2.487507,2.494256,2.50458,2.512311,2.508077,2.495277,2.499387,2.501803,2.496643
1453.262209,2.504769,2.502679,2.515729,2.493739,2.511453,2.5006,2.49853,2.48598,2.506168,2.486649,2.505468,2.494079,2.511453,2.49204,2.492379,2.491024,2.503027,2.494761,2.502332,2.514656,2.497842,2.512874,2.492379,2.499219
1455.380538,2.517132,2.50331,2.506813,2.49127,2.484536,2.496046,2.491949,2.490931,2.512832,2.498799,2.522568,2.508575,2.502265,2.506461,2.500529,2.509635,2.498799,2.500875,2.490592,2.50331,2.489577,2.49949,2.496389,2.508575
1457.497026,2.500947,2.509026,2.519431,2.500947,2.506904,2.499211,2.489952,2.496103,2.512943,2.514736,2.520886,2.486909,2.505495,2.496447,2.499211,2.492333,2.494385,2.507963,2.506904,2.499905,2.505143,2.499905,2.509735,2.50761
1459.611672,2.503296,2.513599,2.514679,2.505408,2.509662,2.494607,2.500497,2.508595,2.507175,2.505055,2.503999,2.499799,2.500148,2.516123,2.507885,2.516123,2.510375,2.501195,2.503296,2.499799,2.510019,2.506821,2.510019,2.499451
1461.724477,2.508834,2.521508,2.505989,2.495828,2.50528,2.487934,2.492378,2.512418,2.505989,2.508478,2.505989,2.512418,2.500703,2.498956,2.509549,2.508834,2.497215,2.495481,2.500003,2.508834,2.502458,2.50422,2.50281,2.511699
1463.835441,2.513756,2.508357,2.503731,2.501965,2.510868,2.512671,2.500557,2.505504,2.503023,2.504439,2.517759,2.510149,2.510868,2.502317,2.513756,2.495665,2.496013,2.499504,2.502317,2.507999,2.499504,2.505504,2.506215,2.495318
1465.944563,2.4997,2.50823,2.522459,2.502171,2.508589,2.498997,2.510389,2.507871,2.506082,2.504656,2.510029,2.516565,2.510389,2.506082,2.513284,2.501464,2.507155,2.501464,2.494106,2.512196,2.506439,2.519134,2.512559,2.513648
1468.051844,2.512936,2.522141,2.508946,2.494392,2.507145,2.501786,2.510031,2.512936,2.504279,2.489531,2.523632,2.516595,2.502496,2.522141,2.498249,2.496141,2.504993,2.50571,2.497545,2.507505,2.496491,2.507505,2.51586,2.506427
1470.157284,2.509305,2.516254,2.508218,2.510031,2.506772,2.507494,2.497494,2.513681,2.496788,2.516992,2.517731,2.5207,2.502108,2.519584,2.50858,2.517731,2.493277,2.49538,2.498908,2.524066,2.515517,2.512948,2.512948,2.50318
1472.260882,2.510686,2.522179,2.528232,2.498421,2.501276,2.49771,2.500918,2.516209,2.501634,2.522179,2.519931,2.49771,2.50307,2.493118,2.515469,2.50379,2.495938,2.517694,2.495585,2.513623,2.505956,2.512887,2.500918,2.516951
1474.362639,2.515836,2.518075,2.515464,2.508823,2.512869,2.509923,2.493002,2.509556,2.517701,2.511025,2.524861,2.51029,2.50084,2.5125,2.492649,2.499046,2.498689,2.503726,2.51398,2.508457,2.518075,2.496904,2.505903,2.510657
1476.462554,2.514012,2.530718,2.510303,2.505164,2.518129,2.500084,2.497566,2.508461,2.496134,2.511783,2.527632,2.511783,2.512896,2.526864,2.517002,2.508461,2.508461,2.501168,2.512896,2.50407,2.502254,2.517002,2.512896,2.507726
1478.560629,2.519792,2.523605,2.502672,2.504867,2.493642,2.503037,2.505234,2.498314,2.510404,2.493642,2.525525,2.518277,2.507811,2.519034,2.512639,2.495074,2.494,2.511148,2.501942,2.518277,2.520933,2.50892,2.50855,2.523989
1480.656861,2.522189,2.505984,2.517226,2.504138,2.509699,2.502667,2.50047,2.504507,2.499011,2.511194,2.520656,2.514954,2.510446,2.527988,2.513823,2.516089,2.524886,2.497195,2.505614,2.503402,2.53505,2.510072,2.508209,2.529547
1482.751253,2.500761,2.535186,2.540795,2.494917,2.510429,2.513069,2.508927,2.500026,2.508927,2.510053,2.515345,2.507805,2.51725,2.519548,2.518015,2.516487,2.523793,2.508927,2.527688,2.511936,2.510053,2.524181,2.525347,2.516487
1484.843803,2.510385,2.523844,2.516102,2.50065,2.501021,2.503622,2.504742,2.502877,2.517639,2.515335,2.526979,2.521118,2.517639,2.510385,2.508119,2.511522,2.502505,2.511902,2.520343,2.526193,2.491854,2.521895,2.513043,2.530534
1486.934512,2.519234,2.513052,2.518456,2.501692,2.505823,2.505446,2.525111,2.514204,2.515746,2.526691,2.53227,2.502815,2.520013,2.514204,2.529073,2.500572,2.512285,2.516132,2.5062,2.522358,2.512668,2.514589,2.529073,2.516518
1489.02338,2.503919,2.530035,2.520892,2.497535,2.516196,2.502408,2.518929,2.521285,2.504676,2.518147,2.527232,2.518929,2.519321,2.517365,2.515031,2.527631,2.508865,2.523654,2.512708,2.523654,2.512322,2.520106,2.513481,2.532452
1491.110406,2.515537,2.517498,2.52503,2.523036,2.504337,2.512807,2.504337,2.509708,2.505864,2.517105,2.525831,2.515146,2.507014,2.501297,2.524631,2.50054,2.521843,2.509322,2.504718,2.529452,2.512419,2.510094,2.510094,2.506247
1493.195591,2.519674,2.52047,2.524875,2.530955,2.516504,2.516109,2.512574,2.528513,2.511792,2.519277,2.53795,2.509844,2.514928,2.514928,2.519674,2.523268,2.516109,2.528107,2.516109,2.513357,2.511012,2.538365,2.524875,2.516899
1495.278934,2.511813,2.518959,2.510241,2.504396,2.518559,2.512207,2.505947,2.50131,2.525005,2.524194,2.544513,2.505559,2.509066,2.525005,2.509849,2.506724,2.52177,2.525817,2.510241,2.524599,2.521367,2.519359,2.522173,2.514578
1497.360436,2.518604,2.501602,2.509822,2.501602,2.519412,2.511406,2.520625,2.521842,2.521436,2.52347,2.532952,2.5122,2.520625,2.509427,2.503935,2.523878,2.519008,2.51499,2.507458,2.52347,2.52347,2.517799,2.508638,2.524287
1499.440097,2.526829,2.506983,2.526001,2.506192,2.516995,2.51659,2.514974,2.512161,2.514974,2.51176,2.509763,2.517806,2.509763,2.524349,2.50857,2.512561,2.525174,2.512963,2.517806,2.540724,2.519433,2.529739,2.530157,2.530157
1501.517916,2.52053,2.546858,2.525919,2.508742,2.525502,2.514392,2.50794,2.50475,2.525086,2.52885,2.537332,2.508742,2.516429,2.517246,2.53819,2.525086,2.513986,2.510751,2.518064,2.52969,2.518474,2.5318,2.515206,2.521354
