Wavelength (nm),Absorbance (AU) 2024-10-10 13:33:35,Absorbance (AU) 2024-10-10 13:48:42,Absorbance (AU) 2024-10-10 14:03:48,Absorbance (AU) 2024-10-10 14:18:54
901.841506,1.654297,1.637528,1.65142,1.650979
904.394392,1.632341,1.642964,1.648374,1.646911
905.670145,1.633874,1.640465,1.641271,1.643292
908.220269,1.637355,1.628096,1.643704,1.647793
910.768552,1.629493,1.628242,1.633809,1.63399
913.314994,1.624973,1.625311,1.635044,1.627003
915.859594,1.619765,1.631262,1.627235,1.634347
918.402353,1.632388,1.630248,1.639181,1.63887
920.943271,1.643325,1.641257,1.644956,1.650489
923.482347,1.667572,1.661207,1.67035,1.669178
926.019582,1.694895,1.693591,1.695913,1.69417
928.554976,1.719704,1.716681,1.718118,1.723038
931.088528,1.743144,1.737987,1.745311,1.747925
933.620239,1.76943,1.767978,1.775139,1.774403
936.150109,1.798796,1.793318,1.800438,1.807373
938.678137,1.820219,1.822182,1.829199,1.829353
941.204324,1.84474,1.845514,1.847065,1.857288
943.72867,1.868988,1.867715,1.866445,1.877034
946.251174,1.885529,1.889759,1.891562,1.891562
948.771837,1.901459,1.900801,1.90626,1.90977
951.290658,1.91172,1.906462,1.91788,1.915206
953.807639,1.92387,1.911209,1.920546,1.917905
956.322778,1.919581,1.922351,1.923169,1.919906
958.836075,1.918721,1.914597,1.922402,1.932154
961.347531,1.923349,1.919723,1.930694,1.928125
963.857146,1.92014,1.916293,1.928882,1.933321
966.36492,1.922471,1.920793,1.924462,1.928162
968.870852,1.919731,1.919283,1.924687,1.922427
971.374943,1.915485,1.919287,1.921643,1.925798
973.877192,1.914542,1.907589,1.918133,1.92292
976.3776,1.911149,1.913392,1.909474,1.919051
978.876167,1.906586,1.908089,1.912353,1.91001
981.372892,1.904894,1.899433,1.913285,1.908393
983.867776,1.899091,1.896617,1.900137,1.907532
986.360819,1.892593,1.890437,1.902885,1.896039
987.60665,1.893586,1.884311,1.892827,1.896255
990.096931,1.882968,1.884439,1.892867,1.894121
992.58537,1.87907,1.877272,1.879912,1.886093
995.071968,1.872481,1.87084,1.873186,1.873892
997.556725,1.863334,1.863905,1.869775,1.866312
1000.03964,1.859006,1.861823,1.862728,1.867741
1002.520714,1.852033,1.845597,1.855453,1.852693
1004.999947,1.837889,1.84097,1.84504,1.853186
1007.477338,1.84054,1.834535,1.838107,1.841602
1009.952888,1.828754,1.827315,1.828136,1.833411
1012.426597,1.821554,1.822464,1.825105,1.824393
1014.898464,1.813918,1.810854,1.817304,1.825682
1017.36849,1.812542,1.804316,1.814127,1.81522
1019.836674,1.799944,1.795643,1.802835,1.805065
1022.303017,1.794452,1.797213,1.799415,1.800184
1024.767519,1.790406,1.785913,1.791443,1.793807
1027.23018,1.784204,1.785041,1.779305,1.786534
1029.690999,1.775323,1.773683,1.78065,1.783245
1032.149977,1.770999,1.770004,1.773361,1.77473
1034.607113,1.765848,1.763342,1.772814,1.774001
1037.062409,1.761241,1.757166,1.761686,1.770687
1039.515862,1.755398,1.753117,1.757337,1.764375
1041.967475,1.750994,1.754679,1.755825,1.758394
1044.417246,1.74922,1.746003,1.750268,1.756524
1046.865176,1.745087,1.743444,1.748216,1.753041
1049.311264,1.744124,1.740246,1.746467,1.754993
1051.755511,1.744406,1.740263,1.74484,1.751049
1054.197917,1.739948,1.736179,1.745228,1.748901
1056.638481,1.739587,1.740535,1.743741,1.745309
1059.077204,1.738318,1.739783,1.743425,1.745957
1061.514086,1.738292,1.740106,1.741146,1.74463
1063.949127,1.739221,1.737839,1.743393,1.74699
1066.382326,1.739855,1.739335,1.740202,1.743947
1067.598235,1.740175,1.737495,1.739309,1.742959
1070.028672,1.740535,1.739841,1.742972,1.748949
1072.457267,1.742653,1.740306,1.741434,1.74809
1074.884022,1.746121,1.7428,1.747703,1.748232
1077.308934,1.744111,1.744808,1.749455,1.753084
1079.732006,1.748416,1.747454,1.754417,1.756108
1082.153236,1.752849,1.74855,1.754262,1.759245
1084.572625,1.7593,1.754161,1.764319,1.763599
1086.990173,1.760776,1.759442,1.762293,1.768412
1089.405879,1.76663,1.765822,1.769242,1.772144
1091.819744,1.772405,1.770148,1.77732,1.77522
1094.231768,1.77619,1.773567,1.780934,1.784248
1096.64195,1.77958,1.7784,1.787928,1.787465
1099.050291,1.785282,1.78519,1.792383,1.79462
1101.45679,1.792791,1.793717,1.796692,1.803272
1103.861448,1.797168,1.797353,1.803993,1.800707
1106.264265,1.809574,1.80627,1.812905,1.812332
1108.665241,1.815787,1.813977,1.819912,1.822522
1111.064375,1.829175,1.828882,1.834586,1.837466
1113.461668,1.84783,1.846515,1.857878,1.856635
1115.857119,1.864769,1.865502,1.867708,1.871303
1118.250729,1.888842,1.891263,1.896705,1.8957
1120.642498,1.921948,1.919485,1.922301,1.930139
1123.032425,1.952456,1.947105,1.958888,1.957366
1125.420511,1.987367,1.987367,1.990885,1.993747
1127.806756,2.030101,2.018873,2.02467,2.035901
1130.191159,2.056334,2.053228,2.063565,2.068667
1132.573721,2.093385,2.089189,2.096262,2.097622
1134.954442,2.125712,2.126074,2.130614,2.130614
1137.333321,2.148725,2.145897,2.148536,2.155589
1139.710359,2.159666,2.166861,2.172783,2.174376
1142.085556,2.176387,2.183612,2.180989,2.187679
1144.458911,2.187377,2.189206,2.192886,2.192681
1145.644899,2.19413,2.203256,2.193925,2.200748
1148.015492,2.198914,2.199326,2.207028,2.212098
1150.384244,2.211255,2.205813,2.214214,2.206438
1152.751154,2.212001,2.207202,2.216641,2.211163
1155.116224,2.200378,2.217996,2.215465,2.222034
1157.479452,2.209883,2.218636,2.225853,2.223718
1159.840838,2.216823,2.216198,2.222486,2.225452
1162.200383,2.206313,2.212219,2.222175,2.220709
1164.558087,2.21963,2.2155,2.221293,2.223172
1166.91395,2.23288,2.211094,2.223826,2.218853
1169.267971,2.216738,2.223105,2.220218,2.225387
1171.620151,2.216869,2.220739,2.220534,2.225263
1173.970489,2.225244,2.222991,2.224423,2.228544
1176.318986,2.219205,2.215396,2.225696,2.22325
1178.665642,2.220997,2.220796,2.216796,2.22932
1181.010457,2.224375,2.231694,2.229037,2.236436
1183.35343,2.223199,2.222202,2.227213,2.234943
1185.694562,2.229313,2.227105,2.230724,2.231128
1188.033852,2.22411,2.220765,2.230276,2.23168
1190.371301,2.222296,2.224648,2.231781,2.224059
1192.706909,2.222595,2.222984,2.218339,2.22709
1195.040675,2.222932,2.22081,2.224094,2.227012
1197.3726,2.220184,2.220375,2.214115,2.23396
1199.702684,2.224709,2.221461,2.22089,2.219371
1202.030926,2.210573,2.221223,2.219524,2.211127
1204.357327,2.225184,2.212833,2.221969,2.218965
1206.681887,2.216042,2.222186,2.223689,2.226331
1209.004605,2.218364,2.213033,2.21781,2.219661
1211.325482,2.211615,2.215621,2.215438,2.216903
1213.644518,2.215575,2.211768,2.210146,2.220151
1215.961712,2.205967,2.213306,2.202961,2.212404
1218.277065,2.208501,2.204428,2.207613,2.213332
1220.590577,2.212576,2.207592,2.210255,2.211146
1221.746642,2.20371,2.208642,2.205114,2.209173
1224.057392,2.205937,2.201044,2.205411,2.209999
1226.3663,2.198763,2.2031,2.209599,2.19601
1228.673367,2.197215,2.1967,2.201876,2.198935
1230.978592,2.19747,2.195075,2.195758,2.1961
1233.281976,2.192781,2.192951,2.188232,2.197037
1235.583519,2.184157,2.190334,2.188991,2.194049
1237.883221,2.187766,2.183125,2.181479,2.180987
1240.181081,2.177681,2.180772,2.18785,2.188182
1242.4771,2.18119,2.179083,2.179406,2.182166
1244.771277,2.18023,2.175105,2.1767,2.184113
1247.063613,2.180767,2.17869,2.177257,2.182533
1249.354108,2.177701,2.172201,2.178335,2.179127
1251.642762,2.178008,2.173467,2.178481,2.182438
1253.929574,2.172886,2.174903,2.182115,2.179436
1256.214544,2.177599,2.176047,2.183076,2.177755
1258.497674,2.180584,2.176556,2.184179,2.181051
1260.778962,2.179055,2.176747,2.175674,2.189674
1263.058409,2.185471,2.185004,2.186563,2.184072
1265.336014,2.18427,2.181807,2.187058,2.190021
1267.611778,2.190894,2.185316,2.187631,2.186241
1269.885701,2.191306,2.192861,2.195047,2.195204
1272.157782,2.199832,2.197321,2.198889,2.203466
1274.428022,2.209772,2.20215,2.207535,2.214443
1276.696421,2.208471,2.210702,2.213105,2.214393
1278.962978,2.212974,2.218607,2.222839,2.224478
1281.227694,2.227313,2.224689,2.233443,2.22518
1283.490568,2.232626,2.236121,2.235453,2.244216
1285.751602,2.236292,2.238628,2.246052,2.245882
1288.010794,2.250776,2.244145,2.253526,2.253698
1290.268144,2.26387,2.258625,2.264927,2.262992
1292.523653,2.266305,2.266129,2.275928,2.276289
1293.650717,2.275802,2.269908,2.276702,2.277604
1295.903465,2.286254,2.279151,2.283508,2.284605
1298.154371,2.285446,2.290594,2.297304,2.292076
1300.403435,2.29509,2.302611,2.299964,2.30757
1302.650658,2.312203,2.310658,2.314142,2.308735
1304.89604,2.311241,2.314721,2.314139,2.322359
1307.139581,2.330514,2.323339,2.328109,2.326912
1309.38128,2.337623,2.337216,2.331348,2.341515
1311.621137,2.338527,2.344894,2.343448,2.343036
1313.859154,2.345536,2.347402,2.348234,2.344915
1316.095329,2.355074,2.351498,2.356343,2.356979
1318.329663,2.3617,2.354686,2.363417,2.365358
1320.562155,2.36472,2.362783,2.367315,2.363858
1322.792806,2.366231,2.373868,2.373868,2.373648
1325.021616,2.363635,2.373415,2.379836,2.37166
1327.248584,2.370161,2.376091,2.38345,2.368637
1329.473711,2.375319,2.379534,2.379089,2.379312
1331.696997,2.382771,2.381649,2.381873,2.376303
1333.918441,2.389209,2.383541,2.386706,2.381742
1336.138044,2.390221,2.395522,2.385891,2.383629
1338.355806,2.38664,2.390755,2.388236,2.397467
1340.571726,2.388017,2.400304,2.399364,2.394001
1342.785805,2.390722,2.396754,2.389342,2.405724
1344.998043,2.387551,2.392391,2.3994,2.392391
1347.208439,2.393398,2.390846,2.399965,2.400201
1349.416994,2.39376,2.396104,2.396104,2.406088
1351.623708,2.394195,2.398916,2.401295,2.406819
1353.82858,2.393761,2.387455,2.393997,2.402315
1356.031611,2.399573,2.40924,2.410709,2.409729
1358.2328,2.398616,2.4078,2.403667,2.405607
1360.432149,2.407449,2.407694,2.39657,2.408184
1362.629656,2.404426,2.408345,2.414041,2.408099
1364.825321,2.405666,2.408372,2.40714,2.408125
1365.922463,2.407825,2.402187,2.409804,2.406593
1368.115367,2.401093,2.401093,2.416464,2.413446
1370.306429,2.408335,2.414843,2.416612,2.415601
1372.49565,2.41199,2.412997,2.405748,2.406492
1374.683029,2.406663,2.410925,2.414212,2.41472
1376.868567,2.423202,2.421124,2.419056,2.407854
1379.052264,2.41654,2.408369,2.414739,2.422247
1381.234119,2.414929,2.419601,2.414671,2.414413
1383.414134,2.415839,2.43228,2.413762,2.417403
1385.592306,2.411281,2.423634,2.425237,2.422303
1387.768638,2.420608,2.413469,2.421142,2.427054
1389.943128,2.421573,2.426447,2.421035,2.428357
1392.115776,2.411006,2.425556,2.414465,2.421737
1394.286584,2.420003,2.404472,2.42219,2.423562
1396.45555,2.415495,2.413596,2.42124,2.417128
1398.622674,2.414442,2.412535,2.404724,2.417455
1400.787958,2.413448,2.4129,2.411808,2.415094
1402.9514,2.404404,2.419202,2.399848,2.419759
1405.113,2.42265,2.415656,2.410964,2.412614
1407.27276,2.408928,2.41555,2.409202,2.41862
1409.430678,2.417392,2.411555,2.42161,2.412108
1411.586754,2.400837,2.420424,2.403815,2.411763
1413.74099,2.415378,2.421283,2.428419,2.405438
1415.893383,2.411277,2.409894,2.419667,2.419102
1418.043936,2.4004,2.410523,2.411077,2.418343
1420.192647,2.411282,2.421389,2.413508,2.421673
1422.339517,2.412725,2.409671,2.412447,2.435603
1424.484546,2.41746,2.420569,2.418306,2.41746
1426.627733,2.421285,2.42015,2.42015,2.404011
1428.769079,2.42508,2.410692,2.423648,2.421651
1430.908583,2.414378,2.412981,2.420015,2.42172
1433.046246,2.420069,2.431574,2.411358,2.414149
1435.182068,2.425722,2.428032,2.426587,2.423424
1436.249288,2.421106,2.42282,2.419114,2.419398
1438.382348,2.415114,2.41399,2.419922,2.41907
1440.513567,2.423128,2.427449,2.424564,2.423415
1442.642944,2.419844,2.426733,2.419275,2.431095
1444.77048,2.425023,2.432004,2.428499,2.433473
1446.896174,2.42758,2.436093,2.42962,2.431669
1449.020027,2.421676,2.434501,2.431847,2.426877
1451.142039,2.441783,2.431655,2.439079,2.439378
1453.262209,2.432568,2.44395,2.430503,2.439121
1455.380538,2.438913,2.432939,2.43502,2.446803
1457.497026,2.427781,2.427781,2.437896,2.436393
1459.611672,2.429828,2.432206,2.443684,2.436099
1461.724477,2.439093,2.434558,2.436064,2.441225
1463.835441,2.443973,2.454589,2.439981,2.42852
1465.944563,2.438727,2.441489,2.448939,2.451766
1468.051844,2.438763,2.434788,2.458878,2.43418
1470.157284,2.439723,2.435416,2.438488,2.437872
1472.260882,2.446834,2.436843,2.445258,2.454482
1474.362639,2.445553,2.432458,2.43709,2.433073
1476.462554,2.438321,2.443673,2.450377,2.449092
1478.560629,2.441181,2.447885,2.439916,2.452412
1480.656861,2.442113,2.436088,2.459709,2.444997
1482.751253,2.444935,2.44688,2.450467,2.435973
1484.843803,2.43609,2.441872,2.443817,2.441226
1486.934512,2.457657,2.446653,2.448633,2.447312
1489.02338,2.442301,2.444605,2.436432,2.44825
1491.110406,2.4393,2.4393,2.445916,2.45365
1493.195591,2.451026,2.45341,2.443286,2.450009
1495.278934,2.44956,2.46237,2.446501,2.459568
1497.360436,2.450794,2.445992,2.44361,2.443271
1499.440097,2.457992,2.456227,2.444413,2.445787
1501.517916,2.447156,2.450649,2.452759,2.455589
