Wavelength (nm),Absorbance (AU) 2024-10-08 14:40:29,Absorbance (AU) 2024-10-08 14:55:39,Absorbance (AU) 2024-10-08 15:10:49,Absorbance (AU) 2024-10-08 15:25:58,Absorbance (AU) 2024-10-08 15:41:08,Absorbance (AU) 2024-10-08 15:56:17,Absorbance (AU) 2024-10-08 16:11:27,Absorbance (AU) 2024-10-08 16:26:36,Absorbance (AU) 2024-10-08 16:41:46,Absorbance (AU) 2024-10-08 16:56:55,Absorbance (AU) 2024-10-08 17:12:04,Absorbance (AU) 2024-10-08 17:27:14,Absorbance (AU) 2024-10-08 17:42:23,Absorbance (AU) 2024-10-08 17:57:33,Absorbance (AU) 2024-10-08 18:12:42,Absorbance (AU) 2024-10-08 18:27:52,Absorbance (AU) 2024-10-08 18:43:01,Absorbance (AU) 2024-10-08 18:58:11,Absorbance (AU) 2024-10-08 19:13:20,Absorbance (AU) 2024-10-08 19:28:30,Absorbance (AU) 2024-10-08 19:43:39,Absorbance (AU) 2024-10-08 19:58:49,Absorbance (AU) 2024-10-08 20:13:58,Absorbance (AU) 2024-10-08 20:29:07
901.841506,1.654963,1.658985,1.664632,1.623033,1.647905,1.629276,1.628438,1.626768,1.655186,1.672201,1.700647,1.689429,1.682977,1.696957,1.694027,1.698429,1.700153,1.698429,1.710895,1.723209,1.703373,1.723991,1.71039,1.721651
904.394392,1.645244,1.640695,1.653641,1.622563,1.627724,1.62593,1.625533,1.618439,1.653853,1.667204,1.69497,1.686201,1.687574,1.682787,1.692182,1.687345,1.702732,1.701784,1.705828,1.713788,1.708946,1.713788,1.707984,1.723139
905.670145,1.651471,1.641069,1.647157,1.614491,1.628163,1.623107,1.617344,1.612222,1.65541,1.657708,1.697366,1.67829,1.67983,1.676756,1.690311,1.686491,1.701515,1.699205,1.706172,1.713968,1.711354,1.725073,1.701515,1.726543
908.220269,1.640999,1.64177,1.644868,1.616111,1.625673,1.616657,1.613753,1.615203,1.64448,1.656287,1.69355,1.683665,1.684303,1.669452,1.683028,1.681757,1.682604,1.684303,1.6999,1.70724,1.689655,1.710166,1.703221,1.711071
910.768552,1.634713,1.631645,1.631825,1.609729,1.616796,1.6099,1.608363,1.603448,1.648513,1.658728,1.68354,1.672732,1.673128,1.67293,1.683946,1.675708,1.688227,1.68031,1.686795,1.699012,1.686387,1.70472,1.697544,1.704932
913.314994,1.634354,1.637121,1.631261,1.607123,1.61332,1.614307,1.613978,1.598783,1.643413,1.649618,1.682821,1.66267,1.671406,1.67197,1.664144,1.672911,1.685528,1.683206,1.684559,1.70375,1.679939,1.694939,1.695733,1.70375
915.859594,1.634836,1.63272,1.642572,1.613352,1.614596,1.613507,1.609487,1.605809,1.644737,1.658471,1.687684,1.662104,1.680557,1.673367,1.678748,1.678027,1.689531,1.680014,1.693248,1.693621,1.688422,1.704592,1.694931,1.705168
918.402353,1.642304,1.636853,1.642304,1.617037,1.620004,1.617777,1.619261,1.604934,1.651011,1.665977,1.684058,1.679082,1.690489,1.673489,1.67806,1.67772,1.697907,1.699156,1.691541,1.705454,1.696484,1.704729,1.694889,1.716468
920.943271,1.649887,1.649587,1.649587,1.627911,1.632796,1.629342,1.63193,1.620124,1.662388,1.671926,1.697989,1.687703,1.687048,1.68951,1.700176,1.693812,1.702884,1.716333,1.709902,1.720557,1.709557,1.71985,1.713888,1.722506
923.482347,1.674328,1.675069,1.67285,1.651268,1.654226,1.648749,1.650427,1.644997,1.686487,1.698056,1.728489,1.712359,1.718051,1.715602,1.715277,1.715928,1.728656,1.727651,1.732024,1.74524,1.726147,1.746113,1.737639,1.749267
926.019582,1.697078,1.695331,1.697224,1.67117,1.679075,1.673236,1.675451,1.66925,1.71041,1.7203,1.745975,1.7339,1.735172,1.732948,1.735331,1.7339,1.756552,1.754549,1.750901,1.766537,1.755383,1.77257,1.759069,1.768424
928.554976,1.724935,1.720861,1.723184,1.699251,1.705496,1.700217,1.700493,1.692145,1.73514,1.746051,1.776069,1.759611,1.764708,1.76088,1.767762,1.762949,1.770838,1.784035,1.777881,1.789089,1.773446,1.79851,1.785209,1.79506
931.088528,1.748946,1.746907,1.748217,1.725634,1.73614,1.72855,1.724115,1.717952,1.758693,1.772809,1.803654,1.783429,1.79189,1.786602,1.793019,1.794477,1.801342,1.802662,1.804649,1.818995,1.803654,1.823826,1.809491,1.822268
933.620239,1.775729,1.768703,1.781075,1.752039,1.757523,1.758798,1.757947,1.744009,1.789522,1.794887,1.823574,1.81107,1.819965,1.819148,1.816223,1.821274,1.822916,1.826053,1.831388,1.837469,1.839857,1.849368,1.840884,1.851823
936.150109,1.802086,1.803289,1.801636,1.778993,1.786603,1.79229,1.789219,1.771094,1.823944,1.823156,1.851142,1.843644,1.847961,1.84216,1.843975,1.840845,1.852152,1.855874,1.859286,1.86741,1.854856,1.870386,1.865495,1.868983
938.678137,1.831048,1.831667,1.825219,1.806869,1.812604,1.809653,1.810684,1.804538,1.841996,1.859613,1.882471,1.870807,1.877802,1.867603,1.878491,1.871824,1.875059,1.886664,1.888952,1.904949,1.885787,1.895352,1.890543,1.900033
941.204324,1.859522,1.855383,1.858883,1.83405,1.839362,1.833447,1.830295,1.831643,1.865157,1.882515,1.913262,1.895352,1.896918,1.894311,1.900243,1.902533,1.90608,1.914349,1.911455,1.926309,1.911275,1.930433,1.920932,1.92968
943.72867,1.880949,1.880949,1.879967,1.850724,1.859526,1.860619,1.858747,1.847374,1.891399,1.905561,1.927983,1.916805,1.921638,1.922178,1.925979,1.920919,1.937212,1.933497,1.933682,1.947023,1.936467,1.951049,1.943413,1.952206
946.251174,1.901191,1.901191,1.887639,1.875287,1.886015,1.880218,1.885691,1.869943,1.907788,1.923229,1.953583,1.938141,1.937228,1.932331,1.94403,1.941075,1.943659,1.946818,1.954721,1.968026,1.955672,1.966657,1.958919,1.972355
948.771837,1.910105,1.908931,1.90977,1.892659,1.898506,1.894437,1.895573,1.889925,1.923926,1.932329,1.963468,1.951297,1.954261,1.949822,1.956124,1.956685,1.968625,1.96901,1.972874,1.974819,1.963278,1.977753,1.970938,1.986875
951.290658,1.916207,1.917545,1.91788,1.899334,1.912216,1.90256,1.905972,1.894859,1.936029,1.947544,1.973055,1.959743,1.959743,1.963079,1.964757,1.961964,1.970019,1.97439,1.979577,1.981708,1.980157,1.986984,1.974963,1.993122
953.807639,1.922205,1.924538,1.931104,1.909915,1.90943,1.903818,1.91267,1.897649,1.942796,1.959133,1.976485,1.964962,1.971616,1.966248,1.970871,1.966616,1.971802,1.986583,1.983318,1.988902,1.979509,1.994755,1.984276,1.992991
956.322778,1.928275,1.931936,1.933275,1.90915,1.910739,1.917636,1.90599,1.90599,1.944653,1.955454,1.977526,1.972177,1.973646,1.967799,1.972911,1.978083,1.983506,1.983318,1.991674,2.000389,1.989952,2.002743,1.98577,2.001172
958.836075,1.929532,1.931497,1.93035,1.919838,1.921439,1.914439,1.916813,1.90569,1.948912,1.95476,1.985614,1.974057,1.976781,1.970093,1.97751,1.966697,1.979339,1.982096,1.986173,2.004421,1.988974,1.999787,1.989724,1.999019
961.347531,1.926846,1.930694,1.93005,1.909175,1.9243,1.918468,1.91256,1.910556,1.949282,1.962594,1.985546,1.966948,1.972409,1.975611,1.976505,1.973829,1.978478,1.981183,1.983904,2.000414,1.989768,1.998339,1.992359,1.998904
963.857146,1.938288,1.92574,1.939094,1.911267,1.919368,1.920759,1.916447,1.903166,1.946421,1.959759,1.98701,1.976677,1.975096,1.970733,1.976149,1.97352,1.979858,1.994648,1.98936,1.98737,1.984135,2.001677,1.996303,2.004671
966.36492,1.929402,1.929713,1.933302,1.911307,1.922624,1.921403,1.913697,1.908487,1.945214,1.957959,1.978329,1.975557,1.972288,1.972117,1.976767,1.971603,1.981468,1.985513,1.984807,1.98375,1.982695,1.995703,1.993538,2.002631
968.870852,1.926656,1.929548,1.935392,1.911008,1.914682,1.913798,1.917942,1.906059,1.949395,1.961392,1.979005,1.970697,1.969188,1.970193,1.972548,1.972548,1.984517,1.977126,1.987126,1.99754,1.991684,1.999689,1.988174,1.998793
971.374943,1.92819,1.923419,1.932862,1.909844,1.914177,1.917528,1.909987,1.903849,1.944223,1.95765,1.971837,1.968699,1.970513,1.96591,1.968534,1.971174,1.983257,1.980036,1.984109,1.994288,1.98139,1.999556,1.994113,2.004353
973.877192,1.928349,1.919723,1.928202,1.906605,1.912687,1.906043,1.909989,1.900053,1.945058,1.947212,1.976558,1.968224,1.964998,1.966931,1.976393,1.962435,1.976064,1.984048,1.97788,1.990986,1.972943,1.995099,1.983042,1.997517
976.3776,1.916495,1.92928,1.92062,1.905316,1.903801,1.901197,1.903389,1.892002,1.935447,1.944109,1.971344,1.957124,1.961498,1.956813,1.963229,1.957124,1.973114,1.970061,1.976514,1.992405,1.978142,1.992911,1.986544,1.989381
978.876167,1.913461,1.917498,1.913876,1.892628,1.90441,1.902919,1.895145,1.891441,1.936219,1.943731,1.965984,1.954562,1.954867,1.953801,1.956853,1.961162,1.962401,1.971017,1.974991,1.983862,1.977553,1.989769,1.976911,1.985005
981.372892,1.917129,1.909476,1.913969,1.889358,1.89732,1.889747,1.894825,1.888325,1.93057,1.939478,1.960747,1.946796,1.949462,1.960747,1.958315,1.952443,1.961968,1.963653,1.964574,1.977213,1.966115,1.980391,1.969679,1.983432
983.867776,1.903555,1.907,1.902237,1.883442,1.889915,1.886984,1.890939,1.885336,1.918183,1.930503,1.955351,1.941307,1.955649,1.945066,1.95224,1.945357,1.9555,1.959534,1.957438,1.973105,1.962698,1.977463,1.964061,1.979502
986.360819,1.905627,1.896681,1.902885,1.875271,1.886909,1.885156,1.876985,1.872592,1.912228,1.920147,1.951603,1.93545,1.945816,1.935591,1.94338,1.941811,1.948845,1.956289,1.958799,1.968532,1.958503,1.970353,1.959095,1.974018
987.60665,1.89651,1.895236,1.903712,1.874744,1.886175,1.883691,1.876811,1.871601,1.917948,1.91929,1.953537,1.931559,1.934333,1.937966,1.936705,1.939935,1.945896,1.950494,1.952375,1.962056,1.953683,1.969838,1.9591,1.96818
990.096931,1.893118,1.892367,1.888881,1.868412,1.877619,1.874009,1.874848,1.867467,1.908411,1.918915,1.942256,1.939181,1.936405,1.934611,1.939181,1.931864,1.93946,1.945352,1.946483,1.958544,1.945776,1.963817,1.954486,1.963522
992.58537,1.886703,1.884995,1.889647,1.863847,1.867691,1.867808,1.865357,1.862457,1.896469,1.914594,1.943841,1.928096,1.929578,1.925816,1.929038,1.931335,1.933508,1.939126,1.94398,1.953284,1.944818,1.954854,1.9472,1.95931
995.071968,1.878869,1.879585,1.877679,1.854987,1.864106,1.862726,1.85793,1.851169,1.888998,1.900243,1.925502,1.918656,1.911788,1.916311,1.924442,1.920226,1.926831,1.929769,1.931649,1.946293,1.932457,1.947129,1.934891,1.952744
997.556725,1.872915,1.871051,1.870122,1.848299,1.8562,1.851953,1.853625,1.842493,1.885706,1.891393,1.920218,1.907774,1.914016,1.904875,1.916847,1.91133,1.929691,1.926246,1.926643,1.935853,1.923484,1.94142,1.936393,1.9443
1000.03964,1.863635,1.858782,1.864203,1.844103,1.847371,1.845625,1.845407,1.834551,1.880296,1.887552,1.917207,1.909191,1.907932,1.895907,1.904926,1.906677,1.91875,1.920947,1.919137,1.928789,1.922244,1.932896,1.921206,1.938794
1002.520714,1.855564,1.855564,1.856784,1.835854,1.846899,1.837445,1.84011,1.83206,1.871243,1.879945,1.906274,1.893393,1.899724,1.890862,1.896547,1.898133,1.909272,1.911787,1.913936,1.926667,1.917499,1.927712,1.921349,1.927581
1004.999947,1.850127,1.84547,1.852529,1.828777,1.83483,1.832943,1.829088,1.816614,1.867679,1.877307,1.896259,1.885497,1.895534,1.888579,1.888817,1.893363,1.901742,1.901988,1.900885,1.916711,1.911789,1.918109,1.910912,1.920663
1007.477338,1.843948,1.841177,1.841921,1.821143,1.825424,1.826758,1.817104,1.814598,1.850302,1.862292,1.889088,1.882028,1.880746,1.880514,1.88063,1.885426,1.893739,1.894219,1.90075,1.910859,1.895542,1.912358,1.902582,1.914743
1009.952888,1.836124,1.835915,1.835183,1.812093,1.819486,1.811895,1.808639,1.804823,1.849305,1.856378,1.883654,1.868954,1.876357,1.874294,1.876127,1.876242,1.887172,1.884823,1.888824,1.90008,1.896215,1.910268,1.899474,1.90878
1012.426597,1.830023,1.827455,1.825717,1.803639,1.814936,1.808613,1.803446,1.803736,1.841402,1.850811,1.875037,1.865541,1.865989,1.864871,1.873326,1.868008,1.877214,1.880905,1.878019,1.895752,1.880211,1.903859,1.889327,1.895992
1014.898464,1.822433,1.820515,1.820314,1.796991,1.801885,1.802754,1.800055,1.79027,1.832048,1.844214,1.869282,1.859918,1.866026,1.857937,1.864129,1.865914,1.874041,1.867595,1.875182,1.886757,1.878507,1.894689,1.881858,1.894092
1017.36849,1.817314,1.814425,1.814524,1.790943,1.797578,1.794628,1.789629,1.778061,1.828347,1.834127,1.8608,1.851293,1.850106,1.849137,1.856622,1.855748,1.862017,1.864127,1.867929,1.874264,1.872558,1.88441,1.873695,1.885578
1019.836674,1.811035,1.80361,1.805357,1.785025,1.791101,1.788193,1.786141,1.775115,1.817989,1.828325,1.855514,1.846118,1.846973,1.841548,1.850089,1.847081,1.856388,1.857045,1.861339,1.876425,1.860786,1.876425,1.868704,1.878492
1022.303017,1.798552,1.796163,1.800376,1.778061,1.783858,1.779159,1.782655,1.770631,1.809319,1.818249,1.846626,1.829831,1.839619,1.836785,1.842896,1.839935,1.849956,1.852769,1.850496,1.863428,1.859331,1.872988,1.860214,1.869929
1024.767519,1.795042,1.790877,1.791915,1.767228,1.774515,1.770182,1.773789,1.762084,1.807489,1.813997,1.843492,1.827725,1.835276,1.829575,1.836216,1.834338,1.845945,1.843386,1.844984,1.859082,1.853714,1.860517,1.858751,1.863736
1027.23018,1.787469,1.788219,1.786721,1.764753,1.768772,1.765287,1.766445,1.75578,1.795218,1.80799,1.83253,1.820642,1.830044,1.822364,1.829321,1.826648,1.837546,1.841559,1.844646,1.854916,1.841029,1.85689,1.850671,1.860088
1029.690999,1.779634,1.777336,1.779174,1.758845,1.764773,1.760341,1.754821,1.749972,1.792451,1.802149,1.827744,1.821405,1.81636,1.82029,1.828878,1.822116,1.828362,1.836377,1.831364,1.844971,1.833445,1.850362,1.8423,1.852319
1032.149977,1.777571,1.776836,1.772088,1.752988,1.758674,1.75212,1.750216,1.746176,1.789317,1.796847,1.823104,1.808047,1.814208,1.814809,1.817926,1.814608,1.825357,1.830521,1.838173,1.842851,1.827003,1.844135,1.833126,1.848986
1034.607113,1.771539,1.770268,1.766207,1.746281,1.751546,1.750852,1.745167,1.737869,1.777674,1.790212,1.817539,1.804396,1.809129,1.808238,1.808436,1.810718,1.81845,1.818348,1.827147,1.834128,1.825703,1.834653,1.833393,1.840689
1037.062409,1.764546,1.759464,1.764367,1.739035,1.747488,1.745596,1.74192,1.735163,1.77581,1.787091,1.810373,1.799547,1.805714,1.802571,1.806504,1.80414,1.81599,1.815687,1.822295,1.82942,1.816394,1.832555,1.824554,1.835819
1039.515862,1.760886,1.758133,1.760352,1.73495,1.741376,1.741802,1.738828,1.728371,1.771528,1.780941,1.807982,1.795359,1.79768,1.796808,1.805014,1.803144,1.809474,1.809574,1.815493,1.821597,1.815493,1.831127,1.820472,1.832385
1041.967475,1.757152,1.755649,1.754062,1.730938,1.743976,1.734707,1.733699,1.728858,1.770375,1.77914,1.80358,1.787799,1.798288,1.794796,1.797704,1.796927,1.80774,1.808139,1.810436,1.818524,1.815271,1.823966,1.815068,1.829896
1044.417246,1.753517,1.751056,1.750618,1.729017,1.734549,1.72985,1.730268,1.722978,1.766578,1.775478,1.79812,1.787985,1.793458,1.787318,1.796074,1.79588,1.80234,1.80234,1.807898,1.818719,1.806203,1.825843,1.818208,1.822731
1046.865176,1.751984,1.744827,1.747606,1.725774,1.733886,1.72652,1.726769,1.719686,1.761054,1.771697,1.796618,1.78488,1.792445,1.789652,1.795839,1.793799,1.802016,1.803896,1.80479,1.816371,1.807481,1.823161,1.812814,1.825343
1049.311264,1.748037,1.747338,1.743432,1.723334,1.734535,1.73007,1.728314,1.716052,1.757485,1.768332,1.797283,1.783702,1.789045,1.784937,1.789045,1.784747,1.797381,1.800622,1.801411,1.811807,1.806978,1.811807,1.807479,1.820699
1051.755511,1.747191,1.749466,1.746406,1.722998,1.728566,1.726313,1.726147,1.714738,1.759587,1.766925,1.790385,1.77784,1.784829,1.781604,1.792028,1.790096,1.795721,1.795234,1.799152,1.81183,1.802311,1.815084,1.807797,1.822288
1054.197917,1.744445,1.740551,1.742364,1.714389,1.729829,1.724981,1.727565,1.715282,1.754292,1.772172,1.794707,1.778896,1.786586,1.78116,1.787737,1.786873,1.792566,1.798826,1.802189,1.810003,1.800801,1.811421,1.807182,1.816214
1056.638481,1.743306,1.739931,1.743654,1.716441,1.72652,1.723854,1.71857,1.714161,1.753859,1.768064,1.790815,1.778018,1.776984,1.783034,1.785421,1.785517,1.794318,1.794416,1.799033,1.807712,1.798244,1.812576,1.805702,1.812882
1059.077204,1.748504,1.740042,1.743076,1.718224,1.723764,1.724847,1.72202,1.71073,1.75302,1.763744,1.792796,1.777744,1.782196,1.775676,1.781245,1.783531,1.793479,1.795634,1.795634,1.807277,1.803561,1.808489,1.801665,1.818826
1061.514086,1.745856,1.73976,1.741754,1.719486,1.723632,1.723299,1.722717,1.711148,1.751062,1.767339,1.785306,1.779582,1.77769,1.781006,1.785018,1.780911,1.788971,1.790329,1.798172,1.807269,1.799758,1.812657,1.803548,1.815736
1063.949127,1.742346,1.739654,1.73948,1.717784,1.72635,1.718279,1.720593,1.711165,1.755169,1.765431,1.785267,1.778112,1.783635,1.778206,1.785074,1.785941,1.789617,1.793717,1.795584,1.806355,1.800139,1.808278,1.802335,1.815849
1066.382326,1.742114,1.73873,1.740636,1.720618,1.722695,1.722279,1.722279,1.71062,1.755739,1.762077,1.78791,1.776542,1.77938,1.777959,1.782332,1.78733,1.792385,1.797204,1.796907,1.80388,1.801177,1.8125,1.804785,1.814348
1067.598235,1.743308,1.741565,1.742,1.717041,1.724839,1.721504,1.722086,1.709865,1.756252,1.764519,1.785952,1.77727,1.786723,1.779353,1.783166,1.784701,1.79275,1.795696,1.794122,1.807483,1.795598,1.812576,1.80295,1.812371
1070.028672,1.743059,1.74123,1.742187,1.720766,1.728887,1.723178,1.725016,1.710681,1.754113,1.766652,1.789944,1.779089,1.780134,1.778995,1.785492,1.784339,1.795228,1.794048,1.796708,1.809439,1.799284,1.814659,1.804181,1.811274
1072.457267,1.746945,1.73944,1.744487,1.721227,1.729772,1.723973,1.72264,1.714069,1.756017,1.767215,1.792174,1.782037,1.784813,1.777197,1.788478,1.788769,1.794721,1.800259,1.798471,1.808497,1.805163,1.815346,1.806877,1.812061
1074.884022,1.746297,1.747703,1.744982,1.723222,1.730101,1.727068,1.728245,1.714488,1.759214,1.768444,1.790905,1.781,1.787321,1.781191,1.789642,1.789545,1.797274,1.799649,1.804038,1.812235,1.798757,1.815003,1.807056,1.818305
1077.308934,1.747081,1.749367,1.748926,1.723785,1.738059,1.730483,1.727121,1.717188,1.762337,1.773186,1.792313,1.784312,1.789888,1.782787,1.789985,1.787861,1.798585,1.805449,1.805851,1.813955,1.805249,1.818788,1.807963,1.821173
1079.732006,1.75415,1.751141,1.752113,1.731403,1.739998,1.732669,1.734193,1.722562,1.764302,1.774045,1.80138,1.787833,1.793046,1.791011,1.793726,1.79431,1.804061,1.809373,1.809978,1.814138,1.812104,1.821334,1.816592,1.825709
1082.153236,1.756658,1.755148,1.754616,1.731177,1.738111,1.738026,1.735985,1.726422,1.770394,1.782214,1.805769,1.796505,1.798558,1.795531,1.798362,1.799146,1.803583,1.809973,1.81098,1.820973,1.810677,1.827312,1.818505,1.827626
1084.572625,1.761086,1.75761,1.757166,1.73859,1.742174,1.742945,1.740208,1.732682,1.770128,1.785567,1.806515,1.798736,1.805523,1.79942,1.80246,1.802362,1.807908,1.815754,1.814133,1.825297,1.821166,1.827168,1.817381,1.831462
1086.990173,1.763545,1.763814,1.761846,1.740593,1.750393,1.746671,1.73915,1.734348,1.779891,1.786171,1.813546,1.799107,1.81024,1.799691,1.810639,1.806662,1.821153,1.814855,1.816573,1.830253,1.820233,1.833084,1.826508,1.833821
1089.405879,1.76852,1.764211,1.766989,1.746447,1.753971,1.750582,1.745676,1.736026,1.782174,1.790445,1.814839,1.804917,1.81144,1.802178,1.808958,1.808562,1.818569,1.819785,1.820802,1.83634,1.825611,1.83994,1.829954,1.839303
1091.819744,1.775129,1.770508,1.770238,1.749143,1.756061,1.753888,1.754495,1.741152,1.786479,1.795263,1.821413,1.814377,1.814776,1.811199,1.814676,1.815375,1.825485,1.828874,1.831147,1.838357,1.82477,1.841742,1.832289,1.847299
1094.231768,1.7761,1.777098,1.773928,1.754427,1.763407,1.757371,1.758676,1.745882,1.796147,1.795199,1.825521,1.814581,1.823493,1.817565,1.821172,1.820268,1.827558,1.830324,1.835077,1.847621,1.839778,1.848263,1.843046,1.849228
1096.64195,1.781766,1.78378,1.781857,1.762302,1.767484,1.764139,1.762215,1.755716,1.797763,1.808409,1.832154,1.820818,1.824027,1.822821,1.830926,1.824732,1.83669,1.83349,1.838143,1.84984,1.845272,1.854458,1.847816,1.85543
1099.050291,1.788679,1.788495,1.784642,1.769563,1.776947,1.770269,1.765961,1.757299,1.802352,1.815389,1.839682,1.824203,1.830247,1.830958,1.832689,1.83844,1.838337,1.844792,1.846474,1.852518,1.848479,1.857891,1.852625,1.860276
1101.45679,1.793161,1.790854,1.794644,1.771325,1.778601,1.773,1.77637,1.763303,1.808514,1.822048,1.845832,1.835712,1.833777,1.835304,1.842501,1.838374,1.845832,1.848872,1.850981,1.863095,1.849293,1.858553,1.853207,1.868565
1103.861448,1.800614,1.79968,1.798841,1.780427,1.784823,1.781768,1.779981,1.773696,1.81458,1.825036,1.853335,1.837273,1.84342,1.838394,1.84466,1.845282,1.85186,1.856726,1.861325,1.869904,1.860144,1.878096,1.861971,1.868809
1106.264265,1.810143,1.809669,1.806929,1.792658,1.79357,1.790294,1.787943,1.782121,1.830148,1.835246,1.854469,1.848519,1.853944,1.849453,1.85321,1.851745,1.860395,1.865001,1.867485,1.881238,1.867269,1.886977,1.872167,1.884042
1108.665241,1.819334,1.818853,1.819141,1.795914,1.806624,1.804572,1.799301,1.7921,1.834216,1.845825,1.870884,1.858174,1.862192,1.864642,1.864322,1.866248,1.871426,1.878427,1.880639,1.886217,1.875898,1.890504,1.879753,1.89255
1111.064375,1.83261,1.826154,1.831921,1.811454,1.821327,1.813524,1.811172,1.802076,1.852265,1.858915,1.882692,1.872311,1.874368,1.874259,1.875672,1.873826,1.883467,1.887139,1.891293,1.898573,1.892196,1.902722,1.895601,1.905394
1113.461668,1.8448,1.842892,1.842592,1.825508,1.83377,1.834457,1.833573,1.82034,1.860792,1.874584,1.90206,1.884726,1.889497,1.889497,1.895563,1.894772,1.902749,1.899998,1.911814,1.917131,1.905287,1.916181,1.909939,1.917488
1115.857119,1.867813,1.863933,1.866236,1.843241,1.853719,1.848549,1.851481,1.840166,1.887861,1.892407,1.916353,1.903586,1.908416,1.906685,1.913185,1.910387,1.920853,1.919308,1.92576,1.933778,1.929386,1.935621,1.928901,1.944956
1118.250729,1.893698,1.893033,1.8927,1.875016,1.87672,1.87406,1.877468,1.866593,1.908257,1.920124,1.939049,1.934148,1.932689,1.931477,1.938556,1.941644,1.944379,1.948767,1.948893,1.961682,1.954729,1.964416,1.953963,1.961034
1120.642498,1.919836,1.921478,1.919485,1.900943,1.910001,1.903528,1.906355,1.891632,1.934959,1.945383,1.972131,1.957337,1.964671,1.964801,1.969368,1.967405,1.974116,1.977711,1.97905,1.988542,1.976776,1.987857,1.980259,1.994477
1123.032425,1.95183,1.95396,1.956986,1.931917,1.939992,1.937807,1.940478,1.930129,1.974014,1.984534,2.003968,1.994901,1.999202,1.996007,2.004674,1.997393,2.004815,2.006513,2.019757,2.026831,2.013085,2.025644,2.018444,2.026831
1125.420511,1.987772,1.989935,1.996078,1.967097,1.985217,1.98108,1.981346,1.969806,2.01019,2.019376,2.03911,2.02507,2.035783,2.036537,2.03308,2.042156,2.044763,2.050802,2.04754,2.058353,2.052991,2.059942,2.056295,2.065875
1127.806756,2.026277,2.028185,2.035452,2.013011,2.025546,2.017867,2.016862,2.015146,2.052067,2.060539,2.084981,2.074547,2.075366,2.067729,2.07324,2.083141,2.082141,2.087165,2.0897,2.100682,2.088177,2.099988,2.087165,2.098429
1130.191159,2.059934,2.063882,2.070112,2.053228,2.066906,2.064994,2.061509,2.051529,2.091213,2.100605,2.119839,2.111795,2.110557,2.115888,2.115709,2.1202,2.116246,2.123645,2.127301,2.130248,2.117321,2.133773,2.134519,2.128035
1132.573721,2.10087,2.105008,2.109011,2.087522,2.105354,2.098133,2.096601,2.09187,2.12795,2.140174,2.154108,2.148902,2.153139,2.144896,2.148711,2.151208,2.155857,2.161345,2.158985,2.173343,2.151787,2.163718,2.157027,2.178852
1134.954442,2.13631,2.132443,2.148122,2.124091,2.126435,2.135017,2.130979,2.127703,2.16498,2.163796,2.190618,2.175378,2.179445,2.181903,2.179445,2.184375,2.188527,2.189572,2.198444,2.202087,2.189362,2.200369,2.18999,2.20338
1137.333321,2.165108,2.16846,2.17625,2.153671,2.151572,2.159837,2.150431,2.155204,2.183976,2.192679,2.220777,2.201346,2.204131,2.207366,2.203701,2.202201,2.205422,2.223915,2.216334,2.223241,2.221895,2.22414,2.220108,2.223465
1139.710359,2.18857,2.188983,2.188364,2.174975,2.172783,2.181212,2.174775,2.171196,2.208607,2.212945,2.236463,2.220866,2.230293,2.223985,2.234396,2.228481,2.227128,2.235773,2.237384,2.234625,2.237154,2.246238,2.238077,2.235314
1142.085556,2.193436,2.209031,2.216389,2.190754,2.196136,2.195511,2.197805,2.185844,2.219455,2.230586,2.247366,2.247601,2.250424,2.236717,2.247601,2.234891,2.2397,2.259005,2.242472,2.261662,2.259969,2.257084,2.258043,2.259487
1144.458911,2.208779,2.216299,2.216299,2.200133,2.215217,2.215217,2.209632,2.200551,2.231067,2.245195,2.251025,2.251965,2.251965,2.252907,2.255983,2.251495,2.26196,2.259081,2.267045,2.272191,2.257648,2.265101,2.263649,2.267045
1145.644899,2.221229,2.217531,2.215586,2.209377,2.214079,2.224078,2.211722,2.208316,2.237023,2.251068,2.266065,2.250133,2.264373,2.252474,2.255064,2.256246,2.252005,2.267521,2.271182,2.268738,2.261008,2.272409,2.265581,2.274133
1148.015492,2.217873,2.227672,2.230322,2.209555,2.226133,2.218951,2.217012,2.213588,2.252133,2.254001,2.271427,2.265861,2.262985,2.25989,2.263941,2.272403,2.272647,2.27756,2.274115,2.282029,2.276819,2.278054,2.271184,2.271184
1150.384244,2.232402,2.231519,2.243829,2.21762,2.226691,2.228659,2.216339,2.216339,2.252542,2.263567,2.290773,2.266428,2.275856,2.274149,2.279291,2.261198,2.273662,2.274392,2.279538,2.281762,2.276101,2.290773,2.272933,2.285994
1152.751154,2.234167,2.227158,2.24309,2.217703,2.224343,2.228028,2.224775,2.224775,2.266946,2.25613,2.278284,2.267661,2.271735,2.27804,2.271735,2.277795,2.275118,2.270053,2.279508,2.289674,2.27682,2.295738,2.282952,2.290176
1155.116224,2.231751,2.236802,2.245955,2.21274,2.24236,2.225249,2.232188,2.226973,2.261807,2.257153,2.282658,2.282412,2.276805,2.276321,2.276321,2.268647,2.282903,2.28438,2.28512,2.290836,2.27439,2.290336,2.274872,2.293093
1157.479452,2.238448,2.237788,2.251874,2.226925,2.23911,2.230804,2.235593,2.220535,2.262922,2.264557,2.29685,2.272348,2.281254,2.27738,2.283203,2.281254,2.276658,2.272825,2.287622,2.29534,2.292835,2.293836,2.282227,2.308343
1159.840838,2.242579,2.241254,2.241254,2.238398,2.239055,2.2428,2.233173,2.237741,2.262488,2.270195,2.293179,2.269489,2.280448,2.278762,2.280689,2.272085,2.277562,2.288238,2.280931,2.282868,2.287502,2.295421,2.287993,2.295171
1162.200383,2.232794,2.24722,2.252588,2.229794,2.236031,2.230649,2.234517,2.227027,2.25825,2.275457,2.288458,2.282873,2.289191,2.274509,2.279268,2.286264,2.276882,2.283114,2.289926,2.292386,2.285535,2.299597,2.290417,2.293373
1164.558087,2.228858,2.240021,2.243954,2.231622,2.246816,2.249253,2.238285,2.237203,2.270887,2.269255,2.293163,2.277,2.293163,2.27112,2.291201,2.270887,2.285127,2.286577,2.288518,2.284645,2.286335,2.302102,2.281284,2.303359
1166.91395,2.240392,2.250467,2.255818,2.235441,2.23996,2.238017,2.239311,2.239095,2.268104,2.276962,2.286728,2.277906,2.283847,2.27767,2.289628,2.287451,2.286728,2.285285,2.294015,2.305934,2.291572,2.293036,2.285525,2.311764
1169.267971,2.248233,2.243003,2.249991,2.234637,2.241922,2.236767,2.25264,2.239551,2.26363,2.268656,2.283617,2.279121,2.283379,2.273741,2.282429,2.290328,2.292265,2.287199,2.28672,2.299605,2.29178,2.295675,2.28816,2.30382
1171.620151,2.243629,2.242983,2.247311,2.239765,2.234454,2.244709,2.243845,2.236995,2.270309,2.267566,2.29025,2.282163,2.286664,2.273993,2.282399,2.286664,2.29001,2.289051,2.290971,2.30267,2.28714,2.304402,2.291934,2.289291
1173.970489,2.243281,2.256104,2.256324,2.241145,2.242212,2.246937,2.237326,2.244998,2.276192,2.281771,2.296285,2.281771,2.289563,2.276192,2.279438,2.283883,2.293632,2.290756,2.297739,2.305084,2.293632,2.297982,2.289801,2.3108
1176.318986,2.255294,2.250291,2.251808,2.248995,2.244064,2.238766,2.242787,2.251591,2.27316,2.281446,2.293939,2.281446,2.288709,2.290841,2.292507,2.284945,2.288237,2.295136,2.292984,2.298265,2.295376,2.303612,2.291079,2.309273
1178.665642,2.249885,2.257253,2.258567,2.237806,2.249241,2.243062,2.238015,2.240741,2.274418,2.279679,2.28781,2.285705,2.283842,2.290633,2.285238,2.288749,2.290397,2.298013,2.301387,2.29538,2.28781,2.292526,2.284307,2.308706
1181.010457,2.246927,2.252269,2.248842,2.233544,2.239348,2.256807,2.247352,2.24249,2.275225,2.278867,2.298744,2.285314,2.290449,2.287641,2.289979,2.285314,2.283925,2.289745,2.30404,2.305496,2.295169,2.293984,2.290214,2.304282
1183.35343,2.245329,2.25382,2.258128,2.24386,2.247436,2.241561,2.240313,2.24807,2.275127,2.283079,2.291647,2.277384,2.280792,2.285839,2.29635,2.293053,2.288617,2.288385,2.301822,2.309795,2.296823,2.304222,2.304704,2.304463
1185.694562,2.238054,2.248234,2.261467,2.234578,2.243218,2.244259,2.244884,2.247185,2.266919,2.281196,2.296898,2.27916,2.289438,2.293852,2.294553,2.283926,2.295021,2.294787,2.299019,2.304967,2.297839,2.314901,2.286214,2.30761
1188.033852,2.243702,2.245566,2.260554,2.237955,2.245566,2.249526,2.242877,2.250994,2.27231,2.28781,2.299868,2.294493,2.292177,2.283486,2.287353,2.290333,2.297523,2.291024,2.297757,2.301989,2.308656,2.314697,2.304121,2.312755
1190.371301,2.25349,2.250142,2.255595,2.240253,2.251604,2.243114,2.250559,2.245376,2.277449,2.272814,2.290744,2.286192,2.285513,2.286418,2.287779,2.285965,2.288007,2.289145,2.296502,2.299294,2.290744,2.301634,2.290515,2.301868
1192.706909,2.244115,2.251325,2.249253,2.23803,2.23602,2.241062,2.23402,2.241062,2.263969,2.276772,2.291328,2.293611,2.290645,2.290191,2.287925,2.295217,2.297983,2.296828,2.286121,2.308516,2.29384,2.298446,2.301466,2.303569
1195.040675,2.244131,2.242307,2.254819,2.247596,2.247596,2.237682,2.236683,2.233501,2.271794,2.276144,2.294675,2.285422,2.286988,2.272011,2.279214,2.277019,2.277896,2.294219,2.295131,2.302036,2.288784,2.293991,2.292627,2.305062
1197.3726,2.241717,2.24494,2.251049,2.240715,2.246764,2.236927,2.241316,2.237921,2.269692,2.279433,2.29845,2.280748,2.288502,2.277467,2.285606,2.289173,2.290743,2.295033,2.291192,2.284275,2.293221,2.302124,2.292995,2.301433
1199.702684,2.25716,2.248766,2.24634,2.23539,2.240731,2.240532,2.237558,2.231866,2.268468,2.270169,2.292905,2.280079,2.287108,2.281169,2.284679,2.28314,2.281825,2.296964,2.295155,2.29268,2.286002,2.300147,2.291784,2.297417
1202.030926,2.241355,2.249151,2.251781,2.231753,2.24334,2.237214,2.233306,2.23741,2.265177,2.268117,2.297314,2.276414,2.2816,2.273631,2.278136,2.279864,2.28795,2.285311,2.281165,2.288391,2.283779,2.297539,2.284654,2.297764
1204.357327,2.239658,2.240051,2.251193,2.228997,2.235946,2.235557,2.238678,2.240051,2.265742,2.271406,2.286879,2.274584,2.278429,2.285569,2.281876,2.276075,2.287975,2.279504,2.290394,2.292384,2.283827,2.296167,2.293938,2.305201
1206.681887,2.238231,2.246084,2.252471,2.23224,2.233971,2.241747,2.233971,2.226142,2.264499,2.272425,2.287853,2.272847,2.280929,2.277934,2.272215,2.275383,2.284377,2.286764,2.291798,2.285895,2.284161,2.299571,2.289164,2.296222
1209.004605,2.236687,2.244081,2.244277,2.230747,2.238814,2.230747,2.23862,2.225262,2.266843,2.261091,2.28565,2.270582,2.272253,2.271417,2.281566,2.270582,2.278369,2.281139,2.285866,2.296363,2.289119,2.291521,2.282852,2.289773
1211.325482,2.234693,2.236417,2.24789,2.225801,2.237185,2.235267,2.221329,2.223373,2.256246,2.269503,2.284033,2.275131,2.28062,2.274293,2.270125,2.26538,2.284033,2.275551,2.281046,2.28942,2.278078,2.287042,2.279984,2.290723
1213.644518,2.231335,2.232849,2.231147,2.215029,2.233038,2.221626,2.226454,2.223847,2.258007,2.264888,2.281733,2.261434,2.275,2.272917,2.271258,2.273541,2.273957,2.276464,2.284072,2.280674,2.283008,2.289867,2.271879,2.292251
1215.961712,2.232307,2.228739,2.232119,2.222058,2.224273,2.220036,2.225386,2.224644,2.253959,2.258342,2.279261,2.263579,2.272796,2.271143,2.275079,2.269291,2.264797,2.274455,2.271969,2.291189,2.280313,2.283908,2.280734,2.283696
1218.277065,2.226111,2.222605,2.238134,2.220588,2.23133,2.217671,2.222422,2.222054,2.256022,2.25503,2.271581,2.263025,2.263227,2.260411,2.275715,2.267689,2.27385,2.276755,2.277171,2.284527,2.272817,2.279051,2.2753,2.272611
1220.590577,2.221073,2.224187,2.228623,2.223636,2.22089,2.221438,2.220161,2.218161,2.250137,2.252878,2.277945,2.2697,2.26868,2.263013,2.272362,2.26221,2.272362,2.278778,2.278153,2.277113,2.263416,2.287199,2.280658,2.2836
1221.746642,2.216686,2.226356,2.224331,2.21777,2.22378,2.22122,2.222133,2.215065,2.251027,2.247527,2.267951,2.264916,2.271417,2.258313,2.264916,2.264916,2.267545,2.270395,2.278432,2.280935,2.273057,2.284295,2.272031,2.280308
1224.057392,2.216253,2.227373,2.228853,2.210354,2.220231,2.223147,2.21374,2.213025,2.240114,2.247207,2.26718,2.257178,2.265766,2.260752,2.269209,2.260354,2.270431,2.263955,2.271043,2.281792,2.270023,2.278872,2.275764,2.280956
1226.3663,2.21872,2.22601,2.233611,2.211195,2.220713,2.212618,2.209245,2.206425,2.241729,2.254885,2.264618,2.248064,2.256854,2.26042,2.261416,2.261416,2.264819,2.265825,2.26643,2.271706,2.262214,2.275191,2.271502,2.281619
1228.673367,2.216348,2.216528,2.223039,2.208346,2.208346,2.210112,2.209758,2.205187,2.237304,2.242229,2.264906,2.25108,2.260513,2.246247,2.253224,2.248754,2.254986,2.261707,2.261309,2.275881,2.258136,2.269344,2.270156,2.266716
1230.978592,2.210175,2.208413,2.210175,2.208237,2.21301,2.202126,2.201433,2.205258,2.234324,2.245482,2.259697,2.246825,2.255168,2.255364,2.255364,2.249717,2.258708,2.254972,2.26188,2.268091,2.254776,2.263474,2.259895,2.279542
1233.281976,2.210235,2.208651,2.222938,2.198922,2.209706,2.204977,2.204455,2.200299,2.235463,2.238464,2.258882,2.247207,2.253784,2.2451,2.253979,2.246631,2.252616,2.256326,2.255151,2.268051,2.257504,2.261057,2.253589,2.26484
1235.583519,2.206782,2.208007,2.205562,2.19677,2.200197,2.200541,2.193032,2.197454,2.22497,2.227893,2.25221,2.246432,2.246432,2.23697,2.249119,2.240164,2.250276,2.251629,2.256497,2.262808,2.246624,2.263007,2.254543,2.266599
1237.883221,2.201479,2.203375,2.202857,2.190776,2.192963,2.198736,2.197712,2.187433,2.22498,2.225343,2.251172,2.240317,2.239941,2.238627,2.237878,2.242769,2.244664,2.243526,2.245235,2.260726,2.251944,2.260923,2.251558,2.256411
1240.181081,2.198603,2.202019,2.207367,2.191182,2.193866,2.196567,2.191684,2.193026,2.220048,2.225262,2.247529,2.23681,2.243926,2.239979,2.237367,2.235326,2.246768,2.243926,2.242418,2.253858,2.244493,2.258324,2.245439,2.257349
1242.4771,2.197075,2.196233,2.202331,2.185271,2.19105,2.195728,2.191548,2.189556,2.218846,2.225632,2.24046,2.237306,2.241579,2.235093,2.230883,2.244765,2.238602,2.240647,2.238788,2.250635,2.247596,2.257166,2.254657,2.252354
1244.771277,2.193146,2.193644,2.20475,2.185089,2.185578,2.184276,2.187704,2.185089,2.213357,2.224094,2.236935,2.23419,2.232915,2.225165,2.240067,2.239512,2.24378,2.236385,2.242291,2.247902,2.241548,2.244527,2.247338,2.255307
1247.063613,2.189669,2.192622,2.196924,2.185114,2.195098,2.191471,2.18366,2.181248,2.216826,2.21927,2.239515,2.233867,2.225796,2.229723,2.233324,2.236226,2.235317,2.23732,2.241353,2.251603,2.239699,2.248035,2.244867,2.256343
1249.354108,2.184877,2.192828,2.198266,2.185682,2.190542,2.186488,2.180876,2.185682,2.213625,2.218288,2.242755,2.22919,2.233665,2.229546,2.229368,2.230617,2.234746,2.242938,2.248115,2.248301,2.230438,2.253354,2.242387,2.251663
1251.642762,2.190787,2.194532,2.198804,2.183872,2.189008,2.18515,2.181168,2.189816,2.216499,2.221864,2.244012,2.23244,2.231015,2.232797,2.235663,2.23137,2.242366,2.237104,2.243645,2.248247,2.243097,2.252337,2.244195,2.257977
1253.929574,2.192353,2.191868,2.1943,2.183065,2.181799,2.181325,2.186564,2.183223,2.213923,2.221993,2.244762,2.230392,2.232162,2.229509,2.230039,2.23163,2.238776,2.23662,2.246775,2.240401,2.24531,2.244214,2.244762,2.255673
1256.214544,2.189261,2.196996,2.201244,2.181661,2.19006,2.186554,2.186554,2.182446,2.213399,2.217471,2.238958,2.230973,2.233972,2.230095,2.229569,2.233795,2.238242,2.235924,2.247093,2.250942,2.242013,2.253342,2.244002,2.249655
1258.497674,2.1937,2.200491,2.199189,2.18654,2.18939,2.186698,2.17872,2.179341,2.213392,2.219989,2.242732,2.230687,2.226861,2.22964,2.229118,2.23314,2.239333,2.239155,2.237554,2.255121,2.23596,2.252908,2.247609,2.258646
1260.778962,2.191576,2.198458,2.200722,2.188885,2.194763,2.191576,2.188254,2.187467,2.215401,2.223357,2.247418,2.231462,2.23566,2.236892,2.23654,2.237951,2.238128,2.238835,2.245616,2.248503,2.243105,2.256542,2.250317,2.252869
1263.058409,2.195713,2.202623,2.202137,2.188597,2.196351,2.190326,2.190641,2.189382,2.230555,2.222002,2.241754,2.234198,2.24353,2.235593,2.239632,2.240868,2.242108,2.247823,2.244243,2.248363,2.245135,2.254343,2.244778,2.258376
1265.336014,2.200471,2.204658,2.209703,2.185662,2.201755,2.197755,2.195056,2.193634,2.228777,2.23032,2.241271,2.24392,2.240392,2.244629,2.244097,2.236718,2.243743,2.253229,2.250523,2.253772,2.249625,2.253772,2.253048,2.260896
1267.611778,2.20872,2.209696,2.211982,2.19607,2.199556,2.200671,2.197335,2.204034,2.22952,2.23363,2.254784,2.242846,2.244607,2.244078,2.240393,2.240218,2.251366,2.254062,2.256413,2.260421,2.263544,2.265761,2.258595,2.262807
1269.885701,2.209695,2.213926,2.213435,2.19364,2.205826,2.20072,2.203266,2.198663,2.229066,2.240735,2.258123,2.248279,2.251298,2.249342,2.248279,2.242303,2.254877,2.251476,2.259938,2.267641,2.263039,2.271918,2.26103,2.272104
1272.157782,2.209216,2.217823,2.222108,2.206651,2.215207,2.206491,2.21293,2.208413,2.239168,2.244716,2.261617,2.257105,2.257644,2.249629,2.25585,2.256208,2.266359,2.264346,2.268565,2.273571,2.268013,2.272826,2.26875,2.275066
1274.428022,2.219001,2.218183,2.227427,2.212182,2.220312,2.216879,2.208972,2.207694,2.247575,2.251437,2.270358,2.26269,2.260524,2.267604,2.259086,2.263234,2.265413,2.271649,2.26269,2.274429,2.268887,2.275919,2.269622,2.278538
1276.696421,2.231316,2.230479,2.235525,2.220396,2.22881,2.225326,2.231484,2.22269,2.253134,2.254369,2.270937,2.266009,2.266553,2.265646,2.269105,2.263656,2.273699,2.277223,2.277037,2.284547,2.27555,2.289308,2.277968,2.284926
1278.962978,2.235284,2.242583,2.238663,2.228602,2.232264,2.236632,2.231262,2.230596,2.257206,2.265067,2.281228,2.272155,2.278245,2.271789,2.277688,2.276205,2.283103,2.285553,2.278245,2.290495,2.280107,2.288207,2.284421,2.291452
1281.227694,2.248206,2.241696,2.245796,2.242377,2.245796,2.240847,2.236624,2.235617,2.265102,2.272158,2.290792,2.274719,2.282307,2.282121,2.284366,2.282494,2.287945,2.299251,2.291745,2.302955,2.295001,2.302564,2.2927,2.297314
1283.490568,2.250907,2.254902,2.252119,2.249871,2.252466,2.243536,2.249182,2.247635,2.276729,2.280784,2.301649,2.290523,2.289199,2.286376,2.298744,2.291851,2.286939,2.293373,2.297973,2.305161,2.297973,2.307321,2.300291,2.31267
1285.751602,2.261292,2.265899,2.266612,2.254298,2.260587,2.262174,2.264654,2.258831,2.295188,2.289321,2.309721,2.294427,2.301716,2.297098,2.296715,2.299593,2.307559,2.302878,2.312885,2.321505,2.310313,2.317475,2.306188,2.310707
1288.010794,2.277083,2.269326,2.279822,2.265411,2.276538,2.272017,2.270939,2.269505,2.295488,2.294161,2.321508,2.302571,2.312529,2.312134,2.308792,2.303344,2.319296,2.311345,2.315899,2.323529,2.310952,2.331915,2.317494,2.328418
1290.268144,2.277812,2.284216,2.295041,2.286805,2.279267,2.281826,2.278539,2.286063,2.309452,2.307697,2.331492,2.326994,2.317139,2.314561,2.313574,2.320332,2.325572,2.32842,2.324964,2.337077,2.329441,2.332933,2.324762,2.342524
1292.523653,2.288915,2.306536,2.300964,2.290776,2.295652,2.287803,2.28873,2.288544,2.318693,2.315523,2.33614,2.326721,2.323894,2.326923,2.327329,2.330178,2.333869,2.326316,2.326316,2.340091,2.339673,2.337384,2.332841,2.340927
1293.650717,2.303651,2.300594,2.302885,2.297936,2.293793,2.299453,2.298884,2.295671,2.315114,2.319466,2.338989,2.338573,2.339613,2.336707,2.337742,2.330952,2.342749,2.343589,2.34003,2.349089,2.342329,2.349941,2.345696,2.341074
1295.903465,2.312365,2.313537,2.319443,2.298357,2.315693,2.309837,2.303295,2.307903,2.335597,2.332522,2.360578,2.344535,2.348331,2.339939,2.337659,2.34812,2.357754,2.34812,2.35003,2.358188,2.354089,2.357754,2.348331,2.353017
1298.154371,2.315526,2.3169,2.327845,2.306799,2.320253,2.313962,2.31533,2.318869,2.349538,2.345322,2.358961,2.354867,2.354438,2.349538,2.352088,2.35401,2.357448,2.352088,2.356586,2.369258,2.356371,2.364846,2.367488,2.365066
1300.403435,2.332642,2.328395,2.338164,2.313363,2.330008,2.32379,2.335905,2.328999,2.350481,2.355164,2.371077,2.360548,2.366659,2.354095,2.370633,2.358602,2.367099,2.361851,2.372412,2.374644,2.367099,2.373527,2.362721,2.374421
1302.650658,2.33606,2.343481,2.354428,2.334021,2.33852,2.339343,2.328965,2.3412,2.363694,2.364348,2.378988,2.372939,2.37383,2.370278,2.370278,2.379892,2.378537,2.369836,2.376963,2.382841,2.373162,2.369394,2.374276,2.384209
1304.89604,2.343618,2.353269,2.355396,2.344657,2.355183,2.345906,2.349467,2.355183,2.377258,2.372574,2.395809,2.379956,2.377482,2.377482,2.377258,2.382899,2.384492,2.396981,2.390229,2.388615,2.381992,2.390923,2.388845,2.404316
1307.139581,2.356178,2.36719,2.364356,2.353627,2.36588,2.370923,2.354263,2.354051,2.383454,2.39078,2.40106,2.396357,2.39356,2.388707,2.396123,2.394956,2.394257,2.403193,2.399173,2.402481,2.40106,2.404859,2.398702,2.415726
1309.38128,2.365407,2.367587,2.380446,2.363239,2.375523,2.371537,2.372419,2.371978,2.390001,2.396023,2.426203,2.411938,2.406648,2.39579,2.396257,2.405693,2.40617,2.407605,2.409526,2.403077,2.401421,2.407845,2.407605,2.413393
1311.621137,2.37068,2.380674,2.390674,2.37821,2.381799,2.375982,2.374207,2.382476,2.39716,2.40779,2.420654,2.40803,2.405643,2.40327,2.412842,2.404693,2.421147,2.410911,2.419424,2.422629,2.40493,2.40779,2.410188,2.416242
1313.859154,2.385606,2.383795,2.398736,2.381991,2.389252,2.378852,2.38971,2.388338,2.408193,2.42105,2.421789,2.422529,2.422036,2.411071,2.412034,2.404386,2.417128,2.423519,2.415424,2.429,2.417861,2.426999,2.422776,2.427249
1316.095329,2.393708,2.397418,2.396953,2.387746,2.40116,2.390946,2.393016,2.394401,2.409939,2.425555,2.430051,2.43156,2.425059,2.421598,2.422338,2.429549,2.427049,2.431056,2.431812,2.446683,2.430051,2.433074,2.430302,2.427797
1318.329663,2.402322,2.391633,2.408482,2.40021,2.399508,2.398341,2.401382,2.407053,2.42058,2.424277,2.439128,2.429755,2.437594,2.427007,2.439384,2.430759,2.431261,2.43632,2.427505,2.440924,2.433278,2.436066,2.432268,2.439128
1320.562155,2.408469,2.418847,2.412302,2.405854,2.4111,2.41134,2.413748,2.419825,2.419581,2.426984,2.442695,2.441407,2.439097,2.434009,2.433756,2.4368,2.432746,2.431235,2.435022,2.448933,2.437564,2.4542,2.433503,2.449981
1322.792806,2.402999,2.423482,2.4272,2.414447,2.411077,2.418819,2.412999,2.421758,2.4272,2.439057,2.439569,2.446539,2.441623,2.44941,2.44188,2.4312,2.438291,2.442395,2.443169,2.453886,2.448625,2.443944,2.442395,2.435491
1325.021616,2.422703,2.420248,2.426164,2.421965,2.425915,2.42542,2.434684,2.428902,2.429152,2.43952,2.453828,2.440545,2.456481,2.441572,2.446225,2.441058,2.451981,2.447266,2.447787,2.450929,2.450929,2.458616,2.437987,2.441572
1327.248584,2.426939,2.425698,2.430935,2.42298,2.429182,2.417108,2.423226,2.423473,2.448863,2.444699,2.463216,2.447036,2.45598,2.444958,2.450697,2.450697,2.457045,2.446776,2.441603,2.459717,2.445996,2.453066,2.453859,2.455184
1329.473711,2.427079,2.428075,2.439186,2.432334,2.422379,2.429824,2.429074,2.440723,2.458003,2.443556,2.462028,2.446927,2.450851,2.446927,2.463108,2.447709,2.450325,2.458805,2.455606,2.45934,2.45375,2.456669,2.454015,2.467453
1331.696997,2.431207,2.440345,2.448371,2.443693,2.437278,2.435499,2.420539,2.43626,2.456815,2.455485,2.467059,2.458416,2.467879,2.455485,2.455485,2.444469,2.460024,2.459487,2.453365,2.466787,2.460292,2.457615,2.459219,2.462446
1333.918441,2.426106,2.44179,2.440761,2.436923,2.447494,2.441533,2.437433,2.434637,2.453804,2.45301,2.462632,2.466705,2.461283,2.445152,2.452218,2.460744,2.466705,2.45513,2.463985,2.462902,2.458329,2.470541,2.453539,2.454864
1336.138044,2.44043,2.439146,2.450576,2.439916,2.446645,2.438634,2.429011,2.43889,2.463126,2.457206,2.465299,2.466389,2.472437,2.456672,2.458813,2.462314,2.466662,2.463126,2.455339,2.463126,2.457206,2.469403,2.456672,2.462855
1338.355806,2.438789,2.440074,2.455259,2.439046,2.44162,2.439817,2.447338,2.442654,2.448911,2.462242,2.467966,2.459005,2.458736,2.4476,2.470994,2.451809,2.463055,2.467143,2.458468,2.466323,2.463055,2.47321,2.464686,2.4721
1340.571726,2.443794,2.441979,2.452192,2.448761,2.441461,2.441203,2.450077,2.44614,2.4651,2.451662,2.472812,2.469214,2.4651,2.462922,2.459675,2.468114,2.467839,2.465647,2.462922,2.478405,2.462379,2.473368,2.463194,2.471702
1342.785805,2.443838,2.453314,2.455715,2.447761,2.461371,2.442019,2.439176,2.453846,2.466553,2.4611,2.475422,2.467102,2.469305,2.469858,2.460288,2.459478,2.466005,2.466279,2.468753,2.467927,2.469858,2.476263,2.463818,2.481059
1344.998043,2.440628,2.450847,2.45511,2.443746,2.447413,2.450317,2.452174,2.456451,2.460769,2.458065,2.477076,2.459415,2.465954,2.462672,2.461312,2.459145,2.470369,2.464037,2.47567,2.481891,2.46431,2.474269,2.466778,2.472872
1347.208439,2.441334,2.453724,2.475101,2.453991,2.466203,2.456945,2.448937,2.449996,2.466478,2.459919,2.483038,2.475944,2.466754,2.46346,2.468134,2.468964,2.471743,2.473418,2.472021,2.46841,2.469796,2.477636,2.470351,2.465378
1349.416994,2.449288,2.473877,2.461136,2.44009,2.453559,2.450086,2.451152,2.449023,2.467737,2.470239,2.480677,2.467183,2.462777,2.473035,2.472755,2.472194,2.477264,2.468014,2.468292,2.475003,2.472755,2.480677,2.482967,2.478115
1351.623708,2.445465,2.452925,2.46079,2.442044,2.446523,2.466021,2.46326,2.453463,2.472438,2.469916,2.484697,2.468799,2.474128,2.465191,2.468242,2.475258,2.470755,2.472157,2.464086,2.472157,2.460516,2.482102,2.473282,2.470755
1353.82858,2.453167,2.464094,2.461061,2.45506,2.443036,2.468263,2.458869,2.44621,2.468822,2.468542,2.481016,2.476154,2.47587,2.474451,2.469381,2.469942,2.467705,2.471627,2.478435,2.478721,2.469381,2.477864,2.484481,2.47587
1356.031611,2.447273,2.468316,2.474804,2.444879,2.47452,2.452642,2.449145,2.460271,2.479663,2.477942,2.484868,2.47737,2.488373,2.471125,2.480814,2.474804,2.470843,2.475089,2.472819,2.480238,2.468316,2.483996,2.478228,2.47737
1358.2328,2.467961,2.453069,2.475032,2.457976,2.465443,2.454155,2.450906,2.46684,2.472189,2.480773,2.483381,2.475602,2.46656,2.47818,2.468241,2.474747,2.461003,2.466001,2.47134,2.48309,2.483672,2.483672,2.47134,2.477606
1360.432149,2.456374,2.470012,2.471995,2.458296,2.463,2.454733,2.451199,2.457746,2.482052,2.470295,2.490565,2.473703,2.464952,2.470012,2.476564,2.478866,2.469447,2.479444,2.478866,2.4838,2.47599,2.479733,2.479733,2.474274
1362.629656,2.460298,2.456982,2.47439,2.46308,2.470682,2.47182,2.458913,2.452057,2.471535,2.473532,2.486297,2.487477,2.479868,2.477553,2.483071,2.468981,2.481612,2.478709,2.476976,2.490439,2.465318,2.494921,2.468416,2.483948
1364.825321,2.472899,2.478663,2.477793,2.458816,2.467776,2.458262,2.453308,2.476637,2.473759,2.478083,2.486272,2.482158,2.477793,2.478083,2.471185,2.469193,2.477215,2.485093,2.482451,2.483036,2.48333,2.479243,2.481574,2.483036
1365.922463,2.472639,2.481612,2.484252,2.459379,2.479569,2.475801,2.466947,2.468647,2.465817,2.470638,2.488094,2.480735,2.470923,2.471494,2.491671,2.471494,2.475801,2.474073,2.477536,2.482197,2.477826,2.484546,2.472925,2.483957
1368.115367,2.467553,2.484927,2.484927,2.461073,2.465006,2.466986,2.473555,2.488487,2.484632,2.469259,2.488785,2.47298,2.48257,2.473555,2.487297,2.46983,2.476733,2.477313,2.485518,2.485518,2.480226,2.492677,2.478767,2.492978
1370.306429,2.462792,2.4719,2.475365,2.471325,2.474785,2.470751,2.472763,2.475075,2.487417,2.470177,2.479443,2.471325,2.478858,2.485039,2.473629,2.467322,2.477399,2.474207,2.492213,2.494933,2.486524,2.486524,2.475365,2.482969
1372.49565,2.479608,2.488814,2.47377,2.470305,2.481374,2.476679,2.475805,2.456715,2.472902,2.483445,2.491221,2.485227,2.473191,2.475222,2.477848,2.484335,2.481965,2.488214,2.483148,2.484038,2.486121,2.48226,2.471746,2.494554
1374.683029,2.486994,2.484898,2.481921,2.477494,2.47195,2.469061,2.477788,2.47195,2.479259,2.476614,2.500714,2.492126,2.482812,2.4772,2.484301,2.476907,2.481921,2.482515,2.4891,2.502266,2.483109,2.485197,2.486394,2.485496
1376.868567,2.48373,2.497412,2.488546,2.473087,2.477195,2.48164,2.473379,2.47192,2.472503,2.48373,2.501447,2.484629,2.493721,2.487639,2.478672,2.476606,2.473087,2.493721,2.489455,2.488849,2.47543,2.49896,2.48373,2.499891
1379.052264,2.468789,2.480874,2.489935,2.477599,2.483572,2.475527,2.479978,2.487197,2.476118,2.480874,2.486288,2.497633,2.493921,2.482971,2.490851,2.4875,2.494537,2.486893,2.484476,2.502004,2.482671,2.498254,2.477006,2.488107
1381.234119,2.478788,2.491536,2.491536,2.4836,2.48755,2.482091,2.47819,2.472552,2.491536,2.482996,2.486026,2.48755,2.496804,2.48755,2.48755,2.482996,2.487855,2.50594,2.482392,2.501505,2.484508,2.492769,2.489998,2.49092
1383.414134,2.483567,2.504437,2.483567,2.470683,2.483567,2.478428,2.478127,2.482656,2.486313,2.482656,2.507962,2.507319,2.479933,2.484176,2.495281,2.477227,2.492167,2.495593,2.486619,2.498416,2.480537,2.497787,2.490619,2.489385
1385.592306,2.477796,2.495361,2.493792,2.50651,2.5049,2.482961,2.485106,2.487879,2.501378,2.484799,2.494733,2.495676,2.49067,2.493479,2.480523,2.484799,2.503616,2.487261,2.489427,2.493479,2.490981,2.489427,2.478098,2.484185
1387.768638,2.485162,2.491079,2.489827,2.486711,2.494859,2.482694,2.476283,2.477801,2.482694,2.481773,2.495492,2.491393,2.507699,2.489202,2.493595,2.489202,2.490453,2.486401,2.486401,2.485471,2.481773,2.497078,2.487022,2.487022
1389.943128,2.490589,2.500808,2.489329,2.470544,2.484322,2.487444,2.484011,2.481531,2.484011,2.471751,2.493757,2.493122,2.498231,2.48246,2.486818,2.489329,2.488386,2.495031,2.491221,2.504378,2.490905,2.493122,2.4887,2.493757
1392.115776,2.470249,2.506659,2.496217,2.473603,2.473909,2.482258,2.475136,2.491727,2.489182,2.488548,2.496863,2.486967,2.484449,2.476674,2.480078,2.509642,2.478527,2.487598,2.495895,2.49654,2.482258,2.500755,2.485077,2.488548
1394.286584,2.482026,2.484549,2.499676,2.485182,2.493174,2.477334,2.473925,2.473,2.489,2.482026,2.506276,2.494143,2.502304,2.492529,2.481711,2.485816,2.49028,2.482026,2.484232,2.501645,2.489,2.505944,2.48868,2.494143
1396.45555,2.491643,2.487132,2.491967,2.469544,2.472943,2.481717,2.484576,2.480453,2.478878,2.476369,2.493265,2.502132,2.487774,2.478249,2.487453,2.482351,2.489704,2.493916,2.494241,2.491643,2.482351,2.491319,2.49784,2.494567
1398.622674,2.494224,2.503842,2.489656,2.481616,2.477178,2.491934,2.47341,2.474349,2.488036,2.491934,2.497517,2.492914,2.492914,2.47341,2.472161,2.475918,2.480343,2.483212,2.485778,2.48739,2.477809,2.497847,2.486422,2.480026
1400.787958,2.483417,2.49648,2.482453,2.486646,2.480212,2.48827,2.471988,2.472929,2.488921,2.479574,2.486322,2.482453,2.472929,2.470736,2.479255,2.486322,2.488921,2.485029,2.482132,2.484383,2.480212,2.483739,2.473557,2.490553
1402.9514,2.470947,2.507282,2.501179,2.478869,2.485963,2.485313,2.472835,2.48015,2.47252,2.489553,2.494166,2.486613,2.480471,2.482724,2.473466,2.463784,2.492513,2.475366,2.48434,2.493174,2.475366,2.496491,2.488244,2.497158
1405.113,2.475356,2.497565,2.498572,2.474084,2.473767,2.470291,2.494227,2.49456,2.469977,2.48339,2.489267,2.481448,2.477911,2.485014,2.462803,2.481125,2.485666,2.482418,2.491906,2.499917,2.477911,2.48534,2.481771,2.483065
1407.27276,2.473781,2.484727,2.486033,2.46528,2.478255,2.483425,2.477613,2.471245,2.487016,2.467468,2.496962,2.47922,2.492624,2.479542,2.472828,2.481155,2.478255,2.478255,2.460012,2.489316,2.479864,2.494287,2.473145,2.481803
1409.430678,2.459065,2.480208,2.495679,2.46371,2.474426,2.476986,2.472834,2.480208,2.476345,2.479562,2.491676,2.482478,2.490019,2.474426,2.484433,2.478272,2.493007,2.475384,2.481828,2.502434,2.480208,2.474745,2.48771,2.479885
1411.586754,2.487089,2.477651,2.498422,2.483485,2.489729,2.488077,2.470942,2.485119,2.474124,2.481532,2.487418,2.485447,2.49006,2.485119,2.477651,2.481857,2.484792,2.475724,2.485447,2.486103,2.477651,2.493386,2.468729,2.49876
1413.74099,2.488513,2.503305,2.484238,2.487193,2.478709,2.479356,2.480328,2.47325,2.489506,2.48391,2.49753,2.480652,2.501258,2.481302,2.478386,2.484893,2.491498,2.476453,2.482278,2.498543,2.481953,2.48293,2.490501,2.492164
1415.893383,2.478224,2.48902,2.485392,2.475968,2.467689,2.473404,2.477256,2.478871,2.481142,2.471172,2.475325,2.500092,2.482119,2.484407,2.477901,2.476611,2.48572,2.479194,2.46236,2.495361,2.479843,2.493348,2.483098,2.475325
1418.043936,2.48099,2.481642,2.500295,2.484914,2.474527,2.493206,2.488875,2.476778,2.48689,2.470377,2.492537,2.481642,2.496905,2.483602,2.48393,2.480339,2.506811,2.480665,2.47969,2.474848,2.480339,2.481968,2.48722,2.490868
1420.192647,2.478044,2.498926,2.475784,2.474498,2.480966,2.482925,2.479665,2.482598,2.472896,2.48358,2.485551,2.493526,2.497908,2.473216,2.48064,2.472577,2.493862,2.474498,2.479665,2.485881,2.475141,2.495206,2.468442,2.479665
1422.339517,2.475559,2.489296,2.492966,2.475237,2.485656,2.498022,2.467584,2.481393,2.478791,2.475559,2.492966,2.488963,2.482373,2.468534,2.475559,2.494645,2.476204,2.485656,2.486315,2.49938,2.492966,2.504512,2.477172,2.487306
1424.484546,2.485299,2.495291,2.486618,2.483984,2.49361,2.478764,2.473926,2.479088,2.473926,2.482019,2.492939,2.474246,2.494618,2.48497,2.475854,2.472325,2.470094,2.505174,2.478439,2.492604,2.483001,2.495628,2.484313,2.496979
1426.627733,2.491131,2.486483,2.49381,2.497182,2.486153,2.48123,2.480904,2.475075,2.487806,2.484835,2.48221,2.485823,2.488137,2.479277,2.483521,2.493139,2.490131,2.487806,2.487475,2.493474,2.478304,2.490131,2.480904,2.480253
1428.769079,2.486941,2.498335,2.495627,2.480702,2.481028,2.470073,2.48595,2.482008,2.48595,2.480376,2.499355,2.480702,2.491263,2.48628,2.483974,2.469437,2.488598,2.488598,2.48628,2.495627,2.488598,2.497996,2.489595,2.500719
1430.908583,2.479834,2.486065,2.501187,2.483759,2.489047,2.478859,2.476268,2.485075,2.496764,2.484087,2.502214,2.49778,2.496425,2.488051,2.479184,2.481465,2.494737,2.482774,2.49914,2.492385,2.479509,2.486065,2.486065,2.501871
1433.046246,2.477008,2.49823,2.490817,2.493834,2.487821,2.488485,2.482873,2.489483,2.492491,2.476684,2.491821,2.472181,2.49552,2.485175,2.483201,2.488153,2.49015,2.480909,2.490817,2.495857,2.486165,2.496872,2.481562,2.491821
1435.182068,2.483221,2.496235,2.49522,2.492189,2.49522,2.49018,2.477667,2.48158,2.490849,2.487848,2.496574,2.486521,2.48619,2.478642,2.484868,2.490849,2.48818,2.497933,2.491854,2.496574,2.502033,2.49522,2.483879,2.500662
1436.249288,2.501372,2.491871,2.50378,2.477999,2.485541,2.497615,2.497275,2.480935,2.496256,2.494902,2.501029,2.48159,2.48521,2.496256,2.495241,2.487862,2.464556,2.491536,2.492207,2.489528,2.485872,2.497955,2.48521,2.488861
1438.382348,2.482858,2.500985,2.482201,2.482858,2.488817,2.500985,2.486159,2.49452,2.49452,2.486159,2.498933,2.475685,2.490487,2.483516,2.500642,2.482858,2.489818,2.492835,2.485166,2.48253,2.489484,2.493172,2.483516,2.499274
1440.513567,2.495314,2.508023,2.516825,2.492951,2.490936,2.499053,2.49701,2.488263,2.498371,2.50145,2.506631,2.50386,2.492278,2.490936,2.501107,2.480997,2.50145,2.504897,2.49735,2.496331,2.493625,2.485607,2.49803,2.490601
1442.642944,2.499995,2.502399,2.492524,2.487171,2.496923,2.48518,2.476658,2.484849,2.502055,2.486506,2.496583,2.492188,2.503088,2.490509,2.485843,2.50068,2.486506,2.492188,2.487171,2.50447,2.49118,2.503779,2.490509,2.491852
1444.77048,2.490289,2.506345,2.513361,2.501844,2.49501,2.497049,2.501156,2.490289,2.498755,2.48895,2.516912,2.490289,2.499098,2.480999,2.488282,2.490625,2.490289,2.495689,2.511244,2.499783,2.500469,2.493656,2.502879,2.493994
1446.896174,2.501905,2.519504,2.504673,2.493704,2.50225,2.49506,2.49574,2.478406,2.49574,2.515215,2.493704,2.488656,2.483666,2.503633,2.49984,2.489661,2.491341,2.493704,2.503287,2.509912,2.508509,2.496421,2.486986,2.513795
1449.020027,2.486617,2.502584,2.517009,2.491312,2.507806,2.514156,2.494357,2.496058,2.488288,2.502238,2.513801,2.501547,2.489965,2.496058,2.48695,2.510264,2.503623,2.489965,2.509912,2.486283,2.501202,2.519161,2.489293,2.489965
1451.142039,2.501112,2.502149,2.502149,2.496301,2.489521,2.495277,2.502843,2.499732,2.501457,2.488177,2.500766,2.487172,2.489521,2.493916,2.50319,2.485502,2.496643,2.487842,2.496985,2.503537,2.485836,2.513731,2.501457,2.505278
1453.262209,2.500254,2.507571,2.505818,2.492379,2.507571,2.496128,2.497156,2.508979,2.494079,2.499564,2.506869,2.500946,2.5006,2.5006,2.490348,2.496813,2.501638,2.493059,2.51323,2.514299,2.498186,2.49204,2.493059,2.516087
1455.380538,2.505058,2.502613,2.518214,2.499836,2.490253,2.50157,2.492289,2.49742,2.504358,2.492289,2.513189,2.507869,2.491609,2.49949,2.508928,2.497076,2.499836,2.496389,2.500182,2.50611,2.509281,2.495703,2.499836,2.500875
1457.497026,2.499211,2.521615,2.509735,2.501644,2.495071,2.491652,2.492333,2.505143,2.497481,2.487583,2.522345,2.504091,2.50339,2.491992,2.512228,2.501295,2.506904,2.497136,2.50374,2.512228,2.487583,2.512586,2.506551,2.512943
1459.611672,2.489815,2.510375,2.51324,2.501195,2.503999,2.497022,2.497368,2.508239,2.497368,2.506114,2.523416,2.514679,2.495985,2.50753,2.506821,2.50753,2.507175,2.496331,2.502945,2.510375,2.494263,2.502945,2.500148,2.518662
1461.724477,2.500353,2.510622,2.502107,2.497563,2.514221,2.50422,2.495828,2.510264,2.508121,2.501404,2.531543,2.505989,2.504573,2.495481,2.510622,2.504927,2.505635,2.503162,2.501404,2.503162,2.495828,2.507409,2.501054,2.486915
1463.835441,2.500206,2.524389,2.506928,2.499154,2.517759,2.505504,2.511949,2.50126,2.519591,2.510508,2.507999,2.507999,2.496013,2.50586,2.51231,2.497755,2.513394,2.500206,2.515207,2.511228,2.497755,2.510508,2.491172,2.500206
1465.944563,2.515104,2.512196,2.507871,2.502171,2.497594,2.507871,2.511111,2.508589,2.51075,2.506797,2.517297,2.513284,2.500758,2.500405,2.509668,2.500758,2.519134,2.5043,2.515834,2.505368,2.505725,2.526932,2.512921,2.497244
1468.051844,2.510031,2.503922,2.508586,2.499307,2.507505,2.506786,2.507505,2.490222,2.515127,2.504279,2.506786,2.511481,2.502141,2.500014,2.506068,2.507865,2.519174,2.508225,2.506427,2.507505,2.502852,2.52438,2.501431,2.512936
1470.157284,2.492578,2.499617,2.507856,2.509668,2.510031,2.514414,2.497494,2.48634,2.50318,2.496436,2.519213,2.504973,2.516254,2.508218,2.510395,2.502108,2.509668,2.507133,2.500683,2.513314,2.514414,2.502823,2.512948,2.509305
1472.260882,2.494174,2.516951,2.526711,2.486493,2.50415,2.500561,2.498777,2.489968,2.501276,2.509955,2.511419,2.512519,2.505956,2.505594,2.505956,2.519184,2.516951,2.507406,2.51436,2.512152,2.508496,2.51658,2.507043,2.516209
1474.362639,2.515836,2.512131,2.525622,2.512131,2.507725,2.505176,2.51029,2.50192,2.512131,2.491944,2.511762,2.515093,2.500122,2.505903,2.508091,2.519574,2.506267,2.519574,2.515836,2.522209,2.506995,2.516954,2.517328,2.512131
1476.462554,2.506992,2.516627,2.52495,2.512896,2.498284,2.498644,2.516627,2.502616,2.519635,2.513268,2.518881,2.504799,2.505164,2.517753,2.51364,2.506992,2.520769,2.498284,2.511413,2.514385,2.508829,2.512154,2.503706,2.514758
1478.560629,2.497953,2.516013,2.524756,2.494,2.511148,2.514885,2.518277,2.514135,2.515261,2.515261,2.510776,2.51376,2.519792,2.518277,2.510404,2.501214,2.507811,2.516766,2.515261,2.509662,2.500487,2.51451,2.509291,2.512265
1480.656861,2.523343,2.521422,2.510446,2.499011,2.528767,2.495747,2.50377,2.511943,2.51082,2.497558,2.521039,2.507837,2.514199,2.502667,2.522958,2.507095,2.520274,2.494305,2.522573,2.512319,2.508581,2.521422,2.508581,2.525659
1482.751253,2.505568,2.526516,2.525736,2.513448,2.507431,2.515345,2.499293,2.513448,2.492384,2.513826,2.531618,2.500026,2.504083,2.518398,2.50594,2.514205,2.524569,2.504825,2.513069,2.514205,2.508179,2.515345,2.509678,2.534391
1484.843803,2.51457,2.502877,2.521895,2.506615,2.526193,2.502505,2.502877,2.501762,2.521118,2.507742,2.523844,2.505116,2.524625,2.504742,2.508119,2.508873,2.502877,2.513043,2.508496,2.528556,2.505865,2.518796,2.518024,2.525409
1486.934512,2.519234,2.515746,2.517292,2.518456,2.508472,2.506956,2.508472,2.510374,2.502815,2.502815,2.527088,2.52987,2.513052,2.520013,2.519623,2.499455,2.51382,2.524716,2.52275,2.525111,2.508093,2.514589,2.514974,2.525505
1489.02338,2.509631,2.518147,2.530437,2.503541,2.499777,2.510014,2.500152,2.497162,2.525638,2.511552,2.516196,2.522468,2.519713,2.488314,2.524447,2.506575,2.511552,2.515031,2.516196,2.516586,2.511937,2.524843,2.524843,2.519713
1491.110406,2.507782,2.515537,2.52503,2.50663,2.528645,2.514365,2.513585,2.526232,2.523434,2.513975,2.516321,2.517891,2.514365,2.513975,2.529048,2.509322,2.515929,2.513196,2.511642,2.517498,2.508936,2.519073,2.517105,2.52224
1493.195591,2.511792,2.521667,2.52047,2.50713,2.512965,2.514928,2.496821,2.499851,2.519277,2.514535,2.511012,2.520072,2.522467,2.528919,2.528513,2.499471,2.519277,2.52367,2.529732,2.514928,2.511012,2.52047,2.516109,2.510622
1495.278934,2.510633,2.534027,2.534027,2.500159,2.524194,2.512996,2.502465,2.506724,2.511026,2.512996,2.520965,2.519359,2.518959,2.507893,2.507114,2.49901,2.522173,2.509066,2.507114,2.518959,2.520563,2.516166,2.528264,2.519359
1497.360436,2.533787,2.528804,2.529217,2.490122,2.5122,2.513792,2.521436,2.516593,2.527568,2.518201,2.526334,2.512597,2.526334,2.509822,2.516994,2.521842,2.525105,2.525514,2.51539,2.531704,2.514191,2.515791,2.517799,2.518201
1499.440097,2.514168,2.512561,2.523115,2.521065,2.516995,2.518212,2.528489,2.514974,2.524349,2.528489,2.510561,2.530574,2.533931,2.506588,2.518212,2.507776,2.523526,2.527658,2.520657,2.542439,2.519433,2.525587,2.510162,2.521884
1501.517916,2.50794,2.52969,2.51277,2.513986,2.520118,2.509544,2.52053,2.521767,2.496485,2.506342,2.527173,2.511154,2.534344,2.523423,2.506342,2.5318,2.525502,2.501583,2.52467,2.516429,2.508341,2.527591,2.513986,2.52885
