Wavelength (nm),Absorbance (AU) 2024-10-10 13:32:30,Absorbance (AU) 2024-10-10 13:47:37,Absorbance (AU) 2024-10-10 14:02:43,Absorbance (AU) 2024-10-10 14:17:49
901.841506,1.648562,1.639026,1.644418,1.647031
904.394392,1.639052,1.644829,1.641518,1.652794
905.670145,1.631699,1.632489,1.641069,1.636259
908.220269,1.637928,1.625487,1.640229,1.642929
910.768552,1.618363,1.632005,1.629135,1.637621
913.314994,1.628191,1.623626,1.623626,1.626325
915.859594,1.630776,1.623246,1.633695,1.638605
918.402353,1.636544,1.640428,1.637783,1.639648
920.943271,1.643769,1.647191,1.651091,1.659152
923.482347,1.660202,1.671525,1.670643,1.671966
926.019582,1.690275,1.69157,1.696641,1.694025
928.554976,1.715679,1.71425,1.723475,1.721585
931.088528,1.744009,1.744732,1.748508,1.744154
933.620239,1.771033,1.772641,1.779434,1.781373
936.150109,1.797606,1.799094,1.798945,1.806007
938.678137,1.825524,1.823546,1.828124,1.836957
941.204324,1.850342,1.847843,1.854433,1.853328
943.72867,1.866445,1.876223,1.876385,1.873314
946.251174,1.891069,1.893701,1.892055,1.892713
948.771837,1.898669,1.905096,1.900308,1.911451
951.290658,1.905483,1.908262,1.913376,1.921247
953.807639,1.919223,1.913973,1.923037,1.927724
956.322778,1.918932,1.92186,1.929769,1.923005
958.836075,1.92369,1.921599,1.927576,1.934132
961.347531,1.922242,1.922084,1.926049,1.92573
963.857146,1.914154,1.923087,1.922775,1.930146
966.36492,1.920033,1.918667,1.928627,1.926925
968.870852,1.916606,1.925292,1.923782,1.927871
971.374943,1.918553,1.920022,1.924309,1.925798
973.877192,1.918566,1.912829,1.922045,1.921173
976.3776,1.906836,1.908639,1.914941,1.918481
978.876167,1.901299,1.90645,1.911663,1.913461
981.372892,1.904358,1.902355,1.907583,1.910289
983.867776,1.892352,1.900006,1.903423,1.902632
986.360819,1.892847,1.889805,1.896424,1.893229
987.60665,1.890808,1.893333,1.892069,1.889175
990.096931,1.88493,1.880772,1.885791,1.890247
992.58537,1.876078,1.874887,1.880514,1.880634
995.071968,1.872246,1.866301,1.873775,1.877442
997.556725,1.866657,1.863562,1.869427,1.870935
1000.03964,1.859905,1.852762,1.862275,1.863635
1002.520714,1.849622,1.846573,1.855121,1.854347
1004.999947,1.846657,1.842679,1.847197,1.851763
1007.477338,1.837896,1.833073,1.839269,1.844911
1009.952888,1.830921,1.831335,1.828548,1.832995
1012.426597,1.823377,1.82287,1.824393,1.825513
1014.898464,1.817104,1.813224,1.818205,1.821221
1017.36849,1.806846,1.805774,1.811949,1.815319
1019.836674,1.802062,1.799368,1.807502,1.8076
1022.303017,1.799223,1.791708,1.795783,1.797213
1024.767519,1.789279,1.787032,1.794092,1.793618
1027.23018,1.780686,1.782997,1.7856,1.788407
1029.690999,1.77642,1.77807,1.782038,1.783896
1032.149977,1.771453,1.769914,1.77537,1.778124
1034.607113,1.767556,1.764056,1.768639,1.771357
1037.062409,1.762042,1.76133,1.761686,1.765713
1039.515862,1.757602,1.756278,1.761332,1.762851
1041.967475,1.753008,1.751169,1.756002,1.762232
1044.417246,1.748958,1.749394,1.753869,1.755283
1046.865176,1.746562,1.746214,1.747345,1.75472
1049.311264,1.74473,1.744904,1.749699,1.750665
1051.755511,1.743021,1.741553,1.745622,1.745796
1054.197917,1.740206,1.740723,1.743056,1.749428
1056.638481,1.742265,1.734875,1.741399,1.744263
1059.077204,1.74134,1.736857,1.746483,1.744471
1061.514086,1.739933,1.737431,1.744106,1.746558
1063.949127,1.739221,1.737666,1.743393,1.748048
1066.382326,1.74351,1.740115,1.741244,1.745349
1067.598235,1.739482,1.738358,1.742087,1.745673
1070.028672,1.739061,1.738888,1.746038,1.750012
1072.457267,1.744837,1.743351,1.743613,1.747649
1074.884022,1.742452,1.746121,1.746912,1.748497
1077.308934,1.745157,1.747608,1.749808,1.749014
1079.732006,1.751583,1.747104,1.750965,1.754417
1082.153236,1.75232,1.75648,1.755591,1.760231
1084.572625,1.754337,1.7569,1.763779,1.764861
1086.990173,1.760598,1.757847,1.765612,1.767597
1089.405879,1.766271,1.763319,1.769604,1.772053
1091.819744,1.772314,1.773492,1.773674,1.777412
1094.231768,1.779834,1.775465,1.778464,1.783325
1096.64195,1.781218,1.781857,1.788391,1.788948
1099.050291,1.787023,1.78519,1.791547,1.791732
1101.45679,1.796039,1.791222,1.797439,1.800252
1103.861448,1.803428,1.800894,1.803333,1.804464
1106.264265,1.809101,1.808061,1.813096,1.815203
1108.665241,1.825343,1.81818,1.818949,1.823201
1111.064375,1.830448,1.827711,1.832413,1.838065
1113.461668,1.8448,1.842391,1.848134,1.850473
1115.857119,1.865188,1.861435,1.87226,1.873645
1118.250729,1.887746,1.885562,1.891815,1.897041
1120.642498,1.923833,1.916339,1.921595,1.925253
1123.032425,1.947848,1.950706,1.95686,1.958507
1125.420511,1.988582,1.986022,1.993747,1.9932
1127.806756,2.031284,2.032026,2.029216,2.033214
1130.191159,2.059149,2.058209,2.061667,2.069148
1132.573721,2.093048,2.09103,2.093385,2.100013
1134.954442,2.123911,2.117488,2.122296,2.134096
1137.333321,2.152334,2.143835,2.144771,2.158287
1139.710359,2.1708,2.161405,2.175375,2.173579
1142.085556,2.183815,2.176785,2.184625,2.183815
1144.458911,2.187783,2.195977,2.194945,2.199299
1145.644899,2.190044,2.1966,2.199084,2.203465
1148.015492,2.193588,2.211673,2.201809,2.202017
1150.384244,2.207272,2.210413,2.206438,2.219333
1152.751154,2.212211,2.209282,2.210953,2.214315
1155.116224,2.207133,2.208373,2.215886,2.21274
1157.479452,2.213405,2.21133,2.225211,2.224357
1159.840838,2.215159,2.21185,2.216406,2.222275
1162.200383,2.214893,2.220291,2.215512,2.218623
1164.558087,2.218594,2.212836,2.215911,2.2238
1166.91395,2.204665,2.222369,2.215773,2.218853
1169.267971,2.216331,2.219397,2.220424,2.220013
1171.620151,2.216464,2.223612,2.218291,2.238698
1173.970489,2.229373,2.227097,2.217104,2.224423
1176.318986,2.222641,2.225696,2.227129,2.225696
1178.665642,2.222205,2.223013,2.226664,2.223619
1181.010457,2.219961,2.221561,2.228629,2.226598
1183.35343,2.218629,2.2228,2.22681,2.223399
1185.694562,2.22114,2.220153,2.227506,2.227706
1188.033852,2.230075,2.220569,2.22748,2.230676
1190.371301,2.224451,2.219763,2.22347,2.222883
1192.706909,2.226501,2.228467,2.218917,2.230838
1195.040675,2.221388,2.22158,2.227207,2.227989
1197.3726,2.217518,2.22114,2.225178,2.227308
1199.702684,2.219561,2.224901,2.224709,2.225862
1202.030926,2.219901,2.219336,2.210389,2.227895
1204.357327,2.222723,2.214682,2.216725,2.226324
1206.681887,2.215857,2.216782,2.216227,2.228229
1209.004605,2.221706,2.215415,2.219661,2.219661
1211.325482,2.212885,2.211796,2.213431,2.212703
1213.644518,2.213577,2.216851,2.213395,2.207457
1215.961712,2.210607,2.211684,2.212765,2.219121
1218.277065,2.214593,2.209035,2.210999,2.211357
1220.590577,2.202315,2.207239,2.21473,2.212397
1221.746642,2.205114,2.205465,2.202661,2.206345
1224.057392,2.205586,2.194832,2.207875,2.216793
1226.3663,2.207305,2.201707,2.204322,2.2031
1228.673367,2.1967,2.198246,2.19773,2.194646
1230.978592,2.195246,2.197642,2.195929,2.205258
1233.281976,2.189407,2.195159,2.1955,2.197208
1235.583519,2.185651,2.186151,2.188823,2.188154
1237.883221,2.189102,2.185771,2.193639,2.189269
1240.181081,2.181917,2.18012,2.187353,2.189014
1242.4771,2.180378,2.182492,2.187573,2.17763
1244.771277,2.175264,2.179104,2.175902,2.183301
1247.063613,2.177575,2.175196,2.18189,2.183338
1249.354108,2.175808,2.177227,2.173765,2.182312
1251.642762,2.187557,2.176908,2.178008,2.183872
1253.929574,2.180537,2.173816,2.169955,2.181799
1256.214544,2.180877,2.176357,2.174346,2.180563
1258.497674,2.181987,2.179496,2.184965,2.184022
1260.778962,2.180291,2.177054,2.18153,2.183708
1263.058409,2.182059,2.173341,2.18175,2.191587
1265.336014,2.188615,2.186282,2.186282,2.183191
1267.611778,2.192143,2.190115,2.193553,2.194967
1269.885701,2.189447,2.193797,2.188675,2.205986
1272.157782,2.199517,2.197009,2.200462,2.202673
1274.428022,2.204043,2.207376,2.205785,2.216065
1276.696421,2.209585,2.204515,2.214554,2.213748
1278.962978,2.219417,2.211378,2.213774,2.223821
1281.227694,2.224525,2.226984,2.224199,2.231279
1283.490568,2.23412,2.233954,2.235453,2.240825
1285.751602,2.244693,2.239465,2.24283,2.249469
1288.010794,2.253698,2.252149,2.262233,2.252149
1290.268144,2.26829,2.256199,2.265456,2.262641
1292.523653,2.273234,2.272876,2.269844,2.27665
1293.650717,2.276702,2.269908,2.28196,2.280321
1295.903465,2.283326,2.274122,2.288648,2.280055
1298.154371,2.294309,2.290409,2.293563,2.298621
1300.403435,2.299775,2.30375,2.299964,2.304131
1302.650658,2.313753,2.305294,2.31008,2.317458
1304.89604,2.317057,2.308744,2.323151,2.321373
1307.139581,2.330514,2.326513,2.335771,2.336382
1309.38128,2.328544,2.328943,2.338031,2.338848
1311.621137,2.348634,2.345101,2.348843,2.349052
1313.859154,2.357067,2.340394,2.358344,2.351158
1316.095329,2.350242,2.354019,2.359106,2.359746
1318.329663,2.354265,2.363202,2.368176,2.350908
1320.562155,2.365151,2.358936,2.363643,2.370363
1322.792806,2.365583,2.367748,2.380969,2.368182
1325.021616,2.372536,2.363635,2.370348,2.372756
1327.248584,2.375207,2.371034,2.3839,2.383675
1329.473711,2.384918,2.377311,2.379757,2.384242
1331.696997,2.386154,2.379413,2.387515,2.382546
1333.918441,2.386026,2.389209,2.383766,2.378613
1336.138044,2.392518,2.38093,2.388849,2.380034
1338.355806,2.37875,2.388236,2.387551,2.387551
1340.571726,2.395626,2.404082,2.396325,2.399364
1342.785805,2.39396,2.389572,2.388654,2.395122
1344.998043,2.397285,2.398694,2.396817,2.394482
1347.208439,2.397373,2.38946,2.404239,2.39154
1349.416994,2.398224,2.3954,2.402019,2.393293
1351.623708,2.40249,2.39537,2.400104,2.398678
1353.82858,2.396594,2.404238,2.400877,2.40016
1356.031611,2.404138,2.40029,2.40245,2.391287
1358.2328,2.396231,2.402942,2.408533,2.404394
1360.432149,2.400407,2.401613,2.396332,2.40843
1362.629656,2.405158,2.406136,2.397891,2.408591
1364.825321,2.402733,2.403465,2.403221,2.406402
1365.922463,2.408813,2.400485,2.399032,2.403651
1368.115367,2.394326,2.403291,2.409206,2.412945
1370.306429,2.402903,2.407838,2.419407,2.411327
1372.49565,2.412493,2.402292,2.413249,2.413501
1374.683029,2.41017,2.413958,2.415993,2.425006
1376.868567,2.412656,2.421642,2.417254,2.421902
1379.052264,2.418348,2.41551,2.420683,2.423817
1381.234119,2.418819,2.423008,2.418298,2.427503
1383.414134,2.415839,2.4148,2.420812,2.417926
1385.592306,2.41702,2.428999,2.424702,2.421772
1387.768638,2.409553,2.418746,2.423014,2.415045
1389.943128,2.423462,2.399782,2.416222,2.422112
1392.115776,2.414465,2.418759,2.42583,2.421737
1394.286584,2.419186,2.415393,2.428816,2.417286
1396.45555,2.418768,2.418768,2.427341,2.42124
1398.622674,2.409286,2.411721,2.427183,2.430853
1400.787958,2.405578,2.408817,2.411535,2.419792
1402.9514,2.411192,2.403865,2.409826,2.406565
1405.113,2.417603,2.419839,2.412614,2.422368
1407.27276,2.4103,2.430255,2.421147,2.424256
1409.430678,2.414603,2.412108,2.408255,2.414881
1411.586754,2.413426,2.413149,2.418454,2.422972
1413.74099,2.41038,2.417057,2.417057,2.41987
1415.893383,2.415731,2.415172,2.417133,2.407966
1418.043936,2.414974,2.417217,2.421738,2.421454
1420.192647,2.413787,2.413787,2.41743,2.411282
1422.339517,2.418897,2.406639,2.4158,2.4144
1424.484546,2.413814,2.411585,2.406063,2.415493
1426.627733,2.422709,2.414797,2.408956,2.427584
1428.769079,2.418815,2.414314,2.419098,2.423648
1430.908583,2.427742,2.405784,2.431221,2.418034
1433.046246,2.432158,2.420637,2.420353,2.428959
1435.182068,2.402453,2.413792,2.425434,2.421709
1436.249288,2.423967,2.421106,2.417414,2.421676
1438.382348,2.420491,2.420491,2.432913,2.429992
1440.513567,2.419986,2.430938,2.416867,2.423989
1442.642944,2.414748,2.431388,2.425866,2.42127
1444.77048,2.426758,2.419859,2.435242,2.425889
1446.896174,2.434613,2.418946,2.430497,2.43639
1449.020027,2.423403,2.434797,2.420815,2.426877
1451.142039,2.438181,2.426096,2.429013,2.434906
1453.262209,2.425821,2.437623,2.437025,2.434345
1455.380538,2.431754,2.426169,2.443752,2.43205
1457.497026,2.438498,2.440916,2.433702,2.43014
1459.611672,2.438511,2.428053,2.4364,2.42658
1461.724477,2.422106,2.440006,2.435461,2.438485
1463.835441,2.443664,2.434816,2.440593,2.43937
1465.944563,2.424585,2.440873,2.448626,2.445819
1468.051844,2.439377,2.455035,2.440918,2.437536
1470.157284,2.442825,2.436029,2.449728,2.438796
1472.260882,2.444001,2.445258,2.456738,2.443374
1474.362639,2.444921,2.434613,2.444289,2.44587
1476.462554,2.441777,2.442724,2.43676,2.449092
1478.560629,2.448207,2.447563,2.436455,2.444041
1480.656861,2.441794,2.441475,2.435773,2.458381
1482.751253,2.445582,2.443321,2.444289,2.449486
1484.843803,2.438651,2.453009,2.452014,2.446097
1486.934512,2.449958,2.437853,2.45162,2.442068
1489.02338,2.456312,2.452934,2.454282,2.446258
1491.110406,2.443258,2.451619,2.44525,2.440945
1493.195591,2.455463,2.442619,2.454435,2.445963
1495.278934,2.441114,2.448878,2.455399,2.451612
1497.360436,2.42926,2.44873,2.457048,2.45845
1499.440097,2.449933,2.456932,2.465123,2.449933
1501.517916,2.453818,2.45488,2.450649,2.432444
